1.66656
1.53076
1.38153
1.22437
1.05896
0.88745
0.71716
0.54596
0.38391
0.22461
0.07904
-0.05798
-0.18585
-0.30121
-0.40222
-0.49744
-0.57953
-0.65552
-0.71716
-0.76965
-0.81635
-0.84869
-0.87372
-0.88867
-0.89874
-0.90179
-0.89447
-0.88501
-0.86914
-0.84961
-0.82367
-0.79437
-0.76447
-0.73364
-0.70160
-0.66742
-0.63538
-0.60333
-0.57434
-0.54901
-0.52765
-0.50995
-0.49530
-0.48523
-0.47943
-0.47333
-0.46570
-0.46021
-0.45105
-0.44067
-0.43121
-0.42145
-0.41168
-0.40680
-0.40405
-0.40375
-0.40619
-0.41077
-0.41626
-0.42023
-0.42572
-0.42816
-0.42877
-0.42328
-0.42084
-0.41595
-0.41199
-0.40588
-0.40100
-0.39673
-0.38757
-0.37781
-0.36804
-0.35889
-0.34851
-0.33844
-0.32623
-0.31433
-0.30487
-0.29419
-0.28534
-0.27527
-0.26520
-0.25543
-0.24323
-0.22827
-0.21698
-0.20264
-0.18799
-0.17700
-0.17181
-0.16937
-0.16937
-0.16968
-0.17395
-0.17822
-0.18158
-0.18372
-0.18463
-0.18463
-0.18402
-0.18402
-0.18402
-0.17975
-0.17639
-0.17212
-0.16541
-0.15869
-0.15106
-0.14343
-0.13550
-0.12878
-0.12390
-0.11841
-0.11383
-0.10864
-0.10162
-0.09399
-0.08545
-0.07538
-0.06989
-0.06226
-0.05768
-0.05310
-0.05249
-0.05249
-0.05280
-0.05188
-0.05676
-0.05737
-0.05432
-0.05249
-0.04791
-0.04486
-0.04028
-0.03387
-0.02625
-0.01678
-0.00641
-0.00153
0.00824
0.01770
0.02747
0.03265
0.03967
0.04456
0.04486
0.04974
0.04974
0.05035
0.05005
0.05280
0.05676
0.06165
0.06714
0.07233
0.07660
0.08057
0.08301
0.08759
0.09033
0.09460
0.09949
0.10468
0.11169
0.11963
0.12665
0.13367
0.14343
0.15320
0.16327
0.17761
0.18829
0.19989
0.21393
0.22644
0.24017
0.25085
0.26093
0.26642
0.26886
0.26855
0.26855
0.26886
0.27283
0.28015
0.28595
0.29541
0.30029
0.30487
0.30975
0.31219
0.31311
0.30884
0.30579
0.30121
0.29846
0.29358
0.29358
0.28900
0.28839
0.28870
0.28839
0.28839
0.28870
0.28503
0.28351
0.28320
0.28381
0.28351
0.27924
0.27863
0.27832
0.27771
0.27832
0.27527
0.27374
0.27344
0.27313
0.27466
0.27374
0.27130
0.26855
0.26550
0.26367
0.25970
0.25879
0.25421
0.24994
0.24170
0.23193
0.22247
0.20874
0.19196
0.17181
0.15045
0.12848
0.10834
0.08972
0.07477
0.06348
0.04913
0.04242
0.03540
0.03113
0.02655
0.01953
0.00916
-0.00336
-0.02228
-0.04150
-0.06104
-0.08545
-0.10498
-0.12024
-0.13428
-0.14679
-0.15656
-0.16876
-0.18127
-0.19104
-0.20111
-0.20782
-0.21576
-0.22339
-0.22797
-0.23285
-0.23743
-0.24231
-0.24719
-0.25238
-0.25299
-0.25269
-0.25208
-0.25024
-0.24811
-0.24841
-0.24780
-0.24719
-0.25024
-0.25238
-0.25665
-0.25726
-0.26184
-0.26672
-0.27130
-0.27924
-0.28381
-0.29297
-0.30334
-0.31250
-0.32074
-0.32745
-0.33112
-0.33508
-0.33569
-0.33081
-0.32867
-0.32379
-0.31677
-0.30945
-0.30365
-0.29694
-0.29388
-0.29144
-0.28625
-0.28564
-0.28229
-0.27832
-0.27740
-0.27222
-0.26917
-0.26733
-0.26459
-0.26215
-0.26184
-0.25848
-0.25543
-0.25024
-0.24139
-0.23132
-0.21881
-0.20355
-0.19257
-0.18311
-0.17487
-0.16937
-0.16479
-0.16479
-0.16022
-0.16022
-0.15564
-0.15503
-0.15045
-0.15015
-0.14801
-0.14526
-0.14069
-0.13794
-0.13550
-0.13824
-0.14282
-0.14709
-0.15686
-0.16235
-0.16724
-0.17151
-0.17395
-0.17639
-0.17914
-0.17914
-0.18219
-0.18158
-0.17975
-0.17731
-0.17181
-0.16724
-0.15808
-0.15289
-0.14313
-0.13824
-0.13092
-0.12604
-0.12543
-0.12085
-0.12115
-0.12054
-0.11627
-0.11566
-0.11078
-0.10376
-0.09857
-0.08972
-0.08301
-0.07507
-0.07172
-0.06927
-0.06714
-0.06927
-0.07141
-0.07690
-0.08148
-0.08453
-0.08942
-0.09155
-0.09186
-0.09155
-0.08911
-0.08423
-0.07935
-0.07690
-0.07202
-0.06836
-0.06561
-0.05768
-0.05249
-0.04791
-0.04364
-0.03815
-0.03754
-0.03815
-0.04150
-0.04272
-0.04822
-0.05157
-0.05951
-0.06470
-0.07385
-0.07965
-0.08850
-0.09399
-0.10315
-0.11078
-0.11719
-0.12299
-0.12512
-0.12970
-0.13062
-0.12604
-0.12299
-0.11780
-0.11292
-0.10925
-0.10132
-0.09399
-0.08972
-0.08240
-0.07507
-0.06989
-0.06073
-0.05066
-0.04120
-0.02625
-0.01617
-0.00671
0.00305
0.00885
0.01160
0.01129
0.01099
0.01068
0.01099
0.00671
0.00641
0.00122
-0.00153
-0.00671
-0.01129
-0.01556
-0.02106
-0.02991
-0.03906
-0.04944
-0.06195
-0.07446
-0.08392
-0.09766
-0.10803
-0.11749
-0.12726
-0.13336
-0.13977
-0.14313
-0.14526
-0.14465
-0.14099
-0.13824
-0.13306
-0.12787
-0.12329
-0.11658
-0.10864
-0.10376
-0.09644
-0.09155
-0.08789
-0.08240
-0.07477
-0.06927
-0.06073
-0.05005
-0.04059
-0.02686
-0.01648
-0.00641
0.00092
0.00519
0.00580
0.00153
-0.00610
-0.01068
-0.02014
-0.03021
-0.03601
-0.04242
-0.04700
-0.04852
-0.04303
-0.03998
-0.03571
-0.02686
-0.02075
-0.01373
-0.00610
-0.00397
0.00092
0.00153
-0.00275
-0.00671
-0.01282
-0.02014
-0.02991
-0.03693
-0.04456
-0.05005
-0.05219
-0.05707
-0.05768
-0.05768
-0.05676
-0.05463
-0.05280
-0.04822
-0.04791
-0.04303
-0.04242
-0.03845
-0.03387
-0.02625
-0.01984
-0.01587
-0.01099
-0.00641
-0.00397
-0.00336
-0.00641
-0.01038
-0.01587
-0.02258
-0.02991
-0.03571
-0.03754
-0.03784
-0.03815
-0.03754
-0.03571
-0.03021
-0.02380
-0.01587
-0.00702
-0.00122
0.00793
0.01343
0.02289
0.02869
0.03723
0.04456
0.05219
0.05920
0.06622
0.07629
0.08484
0.09888
0.11353
0.12878
0.14282
0.15320
0.16296
0.16632
0.16357
0.15869
0.15442
0.14435
0.13458
0.12939
0.12787
0.12726
0.12939
0.13641
0.14404
0.14893
0.15411
0.15686
0.15350
0.15167
0.14740
0.14221
0.13763
0.13245
0.13214
0.12726
0.12482
0.12299
0.11810
0.11322
0.10956
0.10712
0.10468
0.10193
0.10498
0.10712
0.11169
0.11566
0.11780
0.12146
0.12238
0.11780
0.11108
0.10040
0.08850
0.07507
0.05981
0.04822
0.03876
0.02930
0.02136
0.01617
0.01282
0.01373
0.01556
0.02014
0.02747
0.03510
0.03937
0.04028
0.03632
0.02380
0.00671
-0.01617
-0.04364
-0.07263
-0.10193
-0.12878
-0.15320
-0.17365
-0.19012
-0.20142
-0.20844
-0.21088
-0.20660
-0.20142
-0.18768
-0.17303
-0.15533
-0.14099
-0.12909
-0.11902
-0.11353
-0.11322
-0.11780
-0.12329
-0.13245
-0.14221
-0.15228
-0.15869
-0.16663
-0.17365
-0.18066
-0.18616
-0.19318
-0.19836
-0.20386
-0.20630
-0.20813
-0.20599
-0.20416
-0.19958
-0.19196
-0.18677
-0.17944
-0.17303
-0.16510
-0.15381
-0.14374
-0.13092
-0.11536
-0.10132
-0.08698
-0.06805
-0.05157
-0.03662
-0.02625
-0.02319
-0.02289
-0.02960
-0.03540
-0.04883
-0.05524
-0.06165
-0.06653
-0.06287
-0.05554
-0.04242
-0.02441
0.00183
0.03815
0.08545
0.14343
0.21362
0.29572
0.38635
0.49011
0.60028
0.71686
0.83679
0.95856
1.07849
1.19568
1.30615
1.41052
1.50818
1.59729
1.67603
1.74500
1.80176
1.85120
1.89301
1.92535
1.94550
1.95251
1.95068
1.93481
1.90582
1.86462
1.80939
1.73737
1.64978
1.54816
1.42944
1.29303
1.14807
0.99060
0.82733
0.66071
0.48737
0.31830
0.15259
-0.00366
-0.14832
-0.28259
-0.40131
-0.50598
-0.60150
-0.68329
-0.75226
-0.81207
-0.85632
-0.88959
-0.91125
-0.92407
-0.92590
-0.92224
-0.90973
-0.89325
-0.87372
-0.85205
-0.82520
-0.79773
-0.76874
-0.74219
-0.71564
-0.69122
-0.66437
-0.63690
-0.61157
-0.58289
-0.55420
-0.52521
-0.49561
-0.47089
-0.44922
-0.43304
-0.42145
-0.41595
-0.41351
-0.41809
-0.42572
-0.43091
-0.43762
-0.44159
-0.44495
-0.44556
-0.44403
-0.43823
-0.43549
-0.43060
-0.42786
-0.42786
-0.42847
-0.42786
-0.43243
-0.43610
-0.43793
-0.43762
-0.43793
-0.43335
-0.42633
-0.42114
-0.41199
-0.40131
-0.39673
-0.38696
-0.37720
-0.37231
-0.36255
-0.35339
-0.34760
-0.33813
-0.32898
-0.31921
-0.30945
-0.29938
-0.28687
-0.27435
-0.26093
-0.24811
-0.23529
-0.22369
-0.21179
-0.20203
-0.18738
-0.17731
-0.16785
-0.16052
-0.15564
-0.15076
-0.15045
-0.15015
-0.15228
-0.15472
-0.15930
-0.16235
-0.16479
-0.16632
-0.16968
-0.16510
-0.16022
-0.15320
-0.14099
-0.12787
-0.11414
-0.10101
-0.08972
-0.07904
-0.06622
-0.06042
-0.05280
-0.04822
-0.04517
-0.04028
-0.03052
-0.02380
-0.01617
-0.01038
-0.00824
-0.00824
-0.01190
-0.01617
-0.02533
-0.03448
-0.04486
-0.05219
-0.05219
-0.05035
-0.04059
-0.02838
-0.01160
0.00275
0.01709
0.02777
0.03784
0.04456
0.04547
0.04150
0.03601
0.03296
0.03052
0.03326
0.03723
0.04700
0.05951
0.07141
0.07996
0.08972
0.09766
0.09796
0.09308
0.08575
0.07996
0.07202
0.06958
0.06531
0.06927
0.07233
0.07843
0.08545
0.09369
0.10864
0.12146
0.13672
0.15259
0.16998
0.18951
0.20660
0.22400
0.23895
0.25421
0.26581
0.27313
0.27740
0.27832
0.28107
0.28320
0.28351
0.28809
0.29449
0.30121
0.30670
0.31494
0.32440
0.33386
0.34454
0.35370
0.36041
0.36621
0.36682
0.35919
0.34973
0.33722
0.32227
0.30762
0.29205
0.27679
0.26642
0.25665
0.24719
0.24017
0.23560
0.22980
0.22705
0.22491
0.22186
0.22034
0.21942
0.21942
0.22034
0.22430
0.22705
0.23132
0.23895
0.24658
0.25635
0.26550
0.27618
0.28076
0.28290
0.28290
0.27618
0.25970
0.23956
0.21790
0.19348
0.16479
0.14038
0.11566
0.09369
0.07812
0.06348
0.04883
0.03784
0.02808
0.02106
0.01434
0.00366
-0.00153
-0.01068
-0.01770
-0.02258
-0.02228
-0.02289
-0.01892
-0.01373
-0.00641
-0.00214
0.00122
0.00031
-0.00580
-0.01526
-0.03204
-0.05157
-0.07599
-0.10223
-0.13184
-0.16052
-0.19043
-0.21729
-0.24200
-0.25757
-0.27191
-0.28412
-0.29358
-0.30273
-0.31342
-0.32013
-0.32776
-0.33325
-0.33478
-0.33539
-0.33539
-0.33539
-0.33325
-0.33020
-0.32562
-0.31952
-0.31311
-0.30853
-0.30182
-0.29388
-0.28839
-0.28229
-0.27496
-0.26947
-0.26703
-0.26245
-0.26428
-0.26703
-0.27100
-0.27618
-0.28381
-0.28961
-0.29144
-0.29175
-0.29144
-0.28870
-0.27954
-0.26978
-0.26031
-0.24841
-0.23560
-0.22736
-0.21637
-0.20966
-0.20203
-0.19470
-0.18646
-0.18158
-0.17639
-0.17242
-0.16937
-0.16754
-0.16449
-0.16785
-0.17212
-0.17731
-0.18250
-0.18707
-0.19318
-0.19806
-0.20386
-0.20844
-0.21088
-0.21515
-0.21881
-0.21912
-0.21820
-0.21881
-0.21423
-0.20844
-0.20172
-0.19592
-0.18707
-0.17303
-0.16266
-0.15015
-0.13763
-0.13062
-0.12360
-0.11810
-0.11322
-0.10681
-0.10162
-0.09888
-0.09613
-0.09613
-0.09583
-0.09644
-0.10101
-0.10345
-0.10864
-0.11414
-0.11810
-0.12054
-0.12482
-0.12482
-0.12573
-0.12512
-0.12299
-0.12115
-0.11322
-0.10895
-0.10284
-0.09674
-0.09003
-0.08423
-0.07935
-0.07660
-0.07233
-0.07233
-0.07446
-0.07690
-0.07721
-0.07629
-0.07690
-0.07721
-0.07690
-0.07263
-0.07202
-0.06744
-0.06012
-0.05524
-0.04608
-0.03540
-0.02563
-0.01892
-0.01068
-0.00854
-0.00488
-0.00366
-0.00305
-0.00366
-0.00641
-0.01099
-0.01648
-0.02075
-0.02533
-0.03204
-0.04028
-0.04547
-0.05249
-0.05920
-0.06561
-0.06989
-0.07172
-0.07202
-0.06775
-0.06287
-0.05493
-0.05219
-0.04822
-0.04791
-0.05066
-0.05310
-0.05676
-0.05707
-0.05768
-0.05768
-0.05707
-0.05737
-0.05981
-0.06531
-0.07141
-0.07935
-0.08850
-0.09918
-0.10834
-0.11505
-0.12054
-0.12543
-0.12543
-0.12543
-0.12115
-0.11810
-0.11261
-0.10681
-0.09918
-0.09369
-0.08514
-0.07446
-0.06836
-0.06012
-0.05066
-0.04089
-0.03143
-0.01801
-0.00671
0.00793
0.01831
0.02380
0.02594
0.02289
0.01617
0.00488
-0.00824
-0.02502
-0.04211
-0.05676
-0.07385
-0.08789
-0.09949
-0.10559
-0.11017
-0.11566
-0.11566
-0.11322
-0.11169
-0.10864
-0.10651
-0.10132
-0.09674
-0.09216
-0.08514
-0.07477
-0.06561
-0.05554
-0.04150
-0.03082
-0.02350
-0.02106
-0.02289
-0.02563
-0.03265
-0.03693
-0.04456
-0.05035
-0.05249
-0.05249
-0.05219
-0.05188
-0.05249
-0.05280
-0.05188
-0.04822
-0.04791
-0.04761
-0.04303
-0.03845
-0.03754
-0.03326
-0.03296
-0.02869
-0.02838
-0.02533
-0.02319
-0.02716
-0.03052
-0.03571
-0.04028
-0.04517
-0.05005
-0.05493
-0.05768
-0.06195
-0.06226
-0.05981
-0.05463
-0.04974
-0.04059
-0.03540
-0.02838
-0.02075
-0.01373
-0.00549
0.00122
0.00824
0.01160
0.01526
0.01587
0.01556
0.01587
0.01617
0.01587
0.01648
0.01617
0.01617
0.02045
0.02380
0.03082
0.03754
0.04333
0.05005
0.05402
0.05951
0.06012
0.06042
0.05585
0.05219
0.04761
0.04578
0.04272
0.04059
0.04547
0.04578
0.05005
0.05432
0.06165
0.06927
0.07935
0.09033
0.09979
0.11444
0.12756
0.13947
0.15137
0.16266
0.17273
0.18311
0.18890
0.19775
0.20447
0.20935
0.21271
0.21271
0.20752
0.20203
0.18921
0.17426
0.15686
0.14038
0.12268
0.10559
0.09094
0.07874
0.06744
0.06226
0.05493
0.05035
0.04517
0.04486
0.04608
0.04547
0.04944
0.05676
0.06958
0.08026
0.09430
0.10895
0.11932
0.12939
0.13672
0.13733
0.13000
0.11780
0.09827
0.07538
0.04883
0.02319
-0.00214
-0.02686
-0.04974
-0.07141
-0.09094
-0.11017
-0.12482
-0.13733
-0.15228
-0.15747
-0.16449
-0.16968
-0.17334
-0.17395
-0.17365
-0.17212
-0.16998
-0.16754
-0.16418
-0.16510
-0.16113
-0.16022
-0.15747
-0.15533
-0.15106
-0.14954
-0.14526
-0.14496
-0.14099
-0.13336
-0.12787
-0.11841
-0.10895
-0.09888
-0.08942
-0.08209
-0.07751
-0.07690
-0.07965
-0.08881
-0.09888
-0.11078
-0.12238
-0.13214
-0.14191
-0.15167
-0.15839
-0.16266
-0.16510
-0.16449
-0.16449
-0.16022
-0.15961
-0.15564
-0.15259
-0.14984
-0.14557
-0.14221
-0.14008
-0.13489
-0.13092
-0.12360
-0.11841
-0.10864
-0.09674
-0.08179
-0.06317
-0.03815
-0.01251
0.01709
0.04974
0.08667
0.12573
0.17212
0.22552
0.28107
0.34302
0.41077
0.48553
0.56580
0.65430
0.74097
0.83618
0.93719
1.04401
1.15173
1.26343
1.37512
1.48773
1.59363
1.69617
1.78711
1.87195
1.94397
2.00989
2.05750
2.08832
2.09900
2.09534
2.06879
2.02515
1.96228
1.88049
1.77887
1.65863
1.52466
1.37634
1.22284
1.06171
0.89355
0.72540
0.55969
0.39368
0.23438
0.08057
-0.05829
-0.18768
-0.30701
-0.41779
-0.51605
-0.60394
-0.68085
-0.74402
-0.79987
-0.84259
-0.87463
-0.89386
-0.90607
-0.91125
-0.90729
-0.89966
-0.88776
-0.87250
-0.85388
-0.83008
-0.80688
-0.78125
-0.75378
-0.72784
-0.70221
-0.67871
-0.65399
-0.63477
-0.61371
-0.59448
-0.57831
-0.56091
-0.54199
-0.52216
-0.50171
-0.48706
-0.46783
-0.44861
-0.42877
-0.40894
-0.39032
-0.37048
-0.35370
-0.33813
-0.32867
-0.31921
-0.30945
-0.30090
-0.29907
-0.29724
-0.29663
-0.29999
-0.31281
-0.32959
-0.34912
-0.36957
-0.38879
-0.40833
-0.42297
-0.43549
-0.44983
-0.45532
-0.46143
-0.46234
-0.45990
-0.45471
-0.44556
-0.43335
-0.42175
-0.40741
-0.39429
-0.38269
-0.37262
-0.36316
-0.35309
-0.33875
-0.32898
-0.31799
-0.30914
-0.29938
-0.29388
-0.28687
-0.28229
-0.27527
-0.26886
-0.26001
-0.25024
-0.23621
-0.22186
-0.20752
-0.19196
-0.18158
-0.17487
-0.16998
-0.16968
-0.17365
-0.17639
-0.17975
-0.18372
-0.18402
-0.18463
-0.18402
-0.18463
-0.18402
-0.17975
-0.17242
-0.16693
-0.15839
-0.14740
-0.13855
-0.12878
-0.11871
-0.10925
-0.09918
-0.09186
-0.08484
-0.07874
-0.07233
-0.06805
-0.06287
-0.05798
-0.05280
-0.04822
-0.04120
-0.03510
-0.02319
-0.01129
-0.00183
0.01312
0.02716
0.03754
0.04700
0.05402
0.05920
0.05951
0.05951
0.05554
0.05035
0.04761
0.04517
0.04791
0.05249
0.05737
0.06683
0.07904
0.09216
0.11230
0.12756
0.14557
0.16174
0.17273
0.18311
0.19043
0.19501
0.19257
0.18799
0.17822
0.16937
0.15625
0.14435
0.13458
0.12756
0.12024
0.11719
0.11719
0.12024
0.12512
0.13428
0.14038
0.15045
0.16357
0.17273
0.18250
0.19196
0.20264
0.21210
0.22614
0.23651
0.24628
0.25635
0.26581
0.27100
0.27618
0.27771
0.27863
0.27405
0.27374
0.26917
0.26855
0.26367
0.26398
0.26367
0.26367
0.26764
0.27252
0.28046
0.29053
0.29541
0.29755
0.30243
0.30029
0.29816
0.29388
0.28625
0.27893
0.27100
0.26062
0.25177
0.24200
0.23224
0.22705
0.22003
0.21576
0.21576
0.21484
0.21545
0.21912
0.22003
0.22400
0.22156
0.21759
0.20813
0.19165
0.17120
0.15228
0.13031
0.10834
0.08575
0.06531
0.04486
0.03082
0.01434
0.00153
-0.01099
-0.02045
-0.02777
-0.03510
-0.03754
-0.04272
-0.04333
-0.03784
-0.03510
-0.03265
-0.02838
-0.03113
-0.03540
-0.04089
-0.04974
-0.06439
-0.08179
-0.10071
-0.12024
-0.13947
-0.15961
-0.18341
-0.20325
-0.22034
-0.23743
-0.25024
-0.26062
-0.27008
-0.27649
-0.28168
-0.28107
-0.28625
-0.28595
-0.28656
-0.28687
-0.28931
-0.29144
-0.29541
-0.29633
-0.29663
-0.29602
-0.29388
-0.28900
-0.28351
-0.27710
-0.27130
-0.26764
-0.26215
-0.25787
-0.25360
-0.24597
-0.24048
-0.23804
-0.23804
-0.23834
-0.24536
-0.25452
-0.26489
-0.27466
-0.28290
-0.29816
-0.30731
-0.31616
-0.32379
-0.32471
-0.32593
-0.32318
-0.31860
-0.31097
-0.30426
-0.29175
-0.27954
-0.26672
-0.25452
-0.24292
-0.23315
-0.22644
-0.22125
-0.21851
-0.21820
-0.21851
-0.22125
-0.22430
-0.22827
-0.22766
-0.22797
-0.22736
-0.22827
-0.22858
-0.22766
-0.22858
-0.22858
-0.22400
-0.22339
-0.21851
-0.21088
-0.20538
-0.19684
-0.18707
-0.17487
-0.16235
-0.15228
-0.14313
-0.13336
-0.12604
-0.12177
-0.11627
-0.11597
-0.12024
-0.12482
-0.12512
-0.12604
-0.12115
-0.11810
-0.11383
-0.10803
-0.10376
-0.10132
-0.09705
-0.09644
-0.09186
-0.09155
-0.08698
-0.08667
-0.08301
-0.08179
-0.08179
-0.08148
-0.08392
-0.08698
-0.08636
-0.08667
-0.08179
-0.07477
-0.06958
-0.05981
-0.05493
-0.04974
-0.04822
-0.04791
-0.05249
-0.05524
-0.05707
-0.06165
-0.06622
-0.07446
-0.07996
-0.08911
-0.09460
-0.10071
-0.10590
-0.10559
-0.10651
-0.10376
-0.09857
-0.08972
-0.08423
-0.07721
-0.07690
-0.07721
-0.07660
-0.07660
-0.08118
-0.08179
-0.08575
-0.08972
-0.09125
-0.09583
-0.09674
-0.10101
-0.10132
-0.10132
-0.09705
-0.09369
-0.09155
-0.08698
-0.08240
-0.07690
-0.07233
-0.06714
-0.06287
-0.05798
-0.05310
-0.04852
-0.04120
-0.03479
-0.03052
-0.02380
-0.01892
-0.01617
-0.01312
-0.01251
-0.01373
-0.01282
-0.01099
-0.00854
-0.00885
-0.00854
-0.01251
-0.01556
-0.02075
-0.03052
-0.03906
-0.04517
-0.05463
-0.06073
-0.06256
-0.06470
-0.06744
-0.06714
-0.07111
-0.07538
-0.07935
-0.08392
-0.08881
-0.09552
-0.10345
-0.10864
-0.11078
-0.11505
-0.11597
-0.11566
-0.11322
-0.10651
-0.09918
-0.09399
-0.08423
-0.07965
-0.06989
-0.06287
-0.05859
-0.05371
-0.05249
-0.05707
-0.05768
-0.06042
-0.06195
-0.06287
-0.06622
-0.06989
-0.07202
-0.07629
-0.08118
-0.08698
-0.08911
-0.09155
-0.09155
-0.09094
-0.08698
-0.08240
-0.07751
-0.06958
-0.05981
-0.05035
-0.04028
-0.03052
-0.02045
-0.01587
-0.00885
-0.00397
-0.00336
-0.00427
-0.00427
-0.01129
-0.02075
-0.03021
-0.04333
-0.05432
-0.06470
-0.07202
-0.07660
-0.07965
-0.07904
-0.07721
-0.07751
-0.07660
-0.07629
-0.07233
-0.07202
-0.06989
-0.06714
-0.06012
-0.05524
-0.04974
-0.04456
-0.04211
-0.03998
-0.04089
-0.04211
-0.04303
-0.04272
-0.03845
-0.03754
-0.03510
-0.03265
-0.02777
-0.02319
-0.02045
-0.01495
-0.01373
-0.01343
-0.00885
-0.01068
-0.01373
-0.01770
-0.02289
-0.02686
-0.03540
-0.04150
-0.04730
-0.05157
-0.05249
-0.04822
-0.04517
-0.03815
-0.03021
-0.02075
-0.01587
-0.00885
-0.00458
0.00000
0.00214
0.00610
0.00702
0.00580
0.01068
0.01099
0.01373
0.01556
0.02075
0.02747
0.03754
0.04730
0.05707
0.06683
0.07965
0.09308
0.10468
0.11139
0.11658
0.12024
0.11963
0.11719
0.11414
0.11017
0.10468
0.10223
0.09857
0.09827
0.09827
0.10101
0.10223
0.10254
0.10223
0.10284
0.10742
0.11047
0.11627
0.12451
0.13031
0.13489
0.13977
0.14191
0.14587
0.14923
0.15167
0.15564
0.15869
0.16113
0.16113
0.16083
0.16083
0.15839
0.15686
0.15228
0.14740
0.14252
0.13428
0.12726
0.11993
0.11017
0.10010
0.09094
0.08545
0.07965
0.07507
0.07446
0.07446
0.07751
0.08087
0.08606
0.09064
0.09491
0.09766
0.10193
0.10254
0.10223
0.09796
0.09033
0.07751
0.06012
0.04059
0.01831
-0.00305
-0.02777
-0.04761
-0.06683
-0.08240
-0.09369
-0.10406
-0.10834
-0.11353
-0.11658
-0.11841
-0.12054
-0.12329
-0.12482
-0.12787
-0.13062
-0.12604
-0.12512
-0.12115
-0.11688
-0.11139
-0.10651
-0.10620
-0.10681
-0.10651
-0.11017
-0.11566
-0.12054
-0.12787
-0.13306
-0.13824
-0.14038
-0.14496
-0.14465
-0.14282
-0.14008
-0.13550
-0.13519
-0.13062
-0.13062
-0.13062
-0.12817
-0.12543
-0.12604
-0.12543
-0.12573
-0.12543
-0.12512
-0.12512
-0.12451
-0.12543
-0.12512
-0.12512
-0.12512
-0.12482
-0.12482
-0.12573
-0.12115
-0.11627
-0.11322
-0.10803
-0.10620
-0.10162
-0.09644
-0.08942
-0.07477
-0.05798
-0.03784
-0.01373
0.01556
0.04944
0.08759
0.13367
0.18555
0.24628
0.31403
0.38696
0.46783
0.54840
0.63629
0.72754
0.82367
0.92133
1.02661
1.13373
1.24603
1.36108
1.47369
1.57990
1.68335
1.77399
1.85913
1.93451
1.99646
2.04559
2.07458
2.08710
2.08038
2.05811
2.01508
1.95831
1.88293
1.78528
1.67267
1.54419
1.40503
1.25671
1.10046
0.94421
0.78522
0.62408
0.46509
0.30487
0.15259
0.00824
-0.12634
-0.24872
-0.36133
-0.46082
-0.54962
-0.62775
-0.69824
-0.75958
-0.81085
-0.85663
-0.88928
-0.91583
-0.93323
-0.94360
-0.94604
-0.94391
-0.93353
-0.92102
-0.90240
-0.88318
-0.85846
-0.83130
-0.80536
-0.77820
-0.74860
-0.72357
-0.69733
-0.67352
-0.64850
-0.62836
-0.60883
-0.58960
-0.56976
-0.55511
-0.54047
-0.52826
-0.51910
-0.50873
-0.49927
-0.49011
-0.48401
-0.47546
-0.46997
-0.46021
-0.45441
-0.44556
-0.43549
-0.42603
-0.41351
-0.39886
-0.38452
-0.36926
-0.35461
-0.34271
-0.33264
-0.32623
-0.32135
-0.32349
-0.32623
-0.32990
-0.33813
-0.34332
-0.34760
-0.34973
-0.35339
-0.35522
-0.35583
-0.35522
-0.35553
-0.34973
-0.34576
-0.33813
-0.32867
-0.31830
-0.30609
-0.29114
-0.27679
-0.25757
-0.23834
-0.22308
-0.20721
-0.19684
-0.18707
-0.18097
-0.17944
-0.17914
-0.17426
-0.17395
-0.17151
-0.17029
-0.16937
-0.16663
-0.16479
-0.16510
-0.16388
-0.16510
-0.16174
-0.16022
-0.15961
-0.16052
-0.15991
-0.15991
-0.16022
-0.15961
-0.15961
-0.15900
-0.15533
-0.15076
-0.14557
-0.13733
-0.12756
-0.11810
-0.10803
-0.09583
-0.08423
-0.07751
-0.06958
-0.06409
-0.05920
-0.05463
-0.05005
-0.04822
-0.04272
-0.04272
-0.03845
-0.03784
-0.03265
-0.03021
-0.02777
-0.02502
-0.02319
-0.01831
-0.01404
-0.00946
-0.00122
0.00610
0.01282
0.02319
0.02838
0.04059
0.05188
0.06195
0.06744
0.07385
0.07874
0.07996
0.07874
0.07935
0.07690
0.07385
0.07721
0.08118
0.08575
0.09491
0.10468
0.11932
0.12939
0.14038
0.14923
0.15808
0.16449
0.16602
0.16632
0.16632
0.16602
0.16632
0.16571
0.16602
0.16602
0.17120
0.17120
0.17517
0.17670
0.18127
0.18555
0.19287
0.19806
0.20752
0.21271
0.22247
0.23224
0.23865
0.24597
0.25604
0.26581
0.27130
0.27710
0.28107
0.28351
0.28320
0.28351
0.28442
0.28015
0.27832
0.27618
0.27283
0.27344
0.27069
0.27130
0.27344
0.27618
0.27832
0.27893
0.27863
0.27832
0.27863
0.27893
0.27863
0.27802
0.27832
0.27832
0.23712
0.20294
0.19653
0.19104
0.18616
0.18524
0.18585
0.18555
0.18585
0.18555
0.16876
0.14679
0.13153
0.11261
0.09308
0.07477
0.05920
0.04333
0.03082
0.02106
0.01312
0.00702
-0.00122
-0.00641
-0.01099
-0.02014
-0.02533
-0.03571
-0.04547
-0.05524
-0.06897
-0.07965
-0.08850
-0.09918
-0.10834
-0.11810
-0.12756
-0.13794
-0.15259
-0.16693
-0.18158
-0.19592
-0.20874
-0.22125
-0.23041
-0.23621
-0.24567
-0.25269
-0.26001
-0.26520
-0.26947
-0.27466
-0.27710
-0.27679
-0.26978
-0.26459
-0.25574
-0.24567
-0.23621
-0.23071
-0.22125
-0.21545
-0.21393
-0.21851
-0.22156
-0.23071
-0.24109
-0.24994
-0.25726
-0.26489
-0.27008
-0.27161
-0.27222
-0.26978
-0.26917
-0.27191
-0.27161
-0.27649
-0.27649
-0.27710
-0.27740
-0.27649
-0.27191
-0.26855
-0.26459
-0.26276
-0.25909
-0.25787
-0.25757
-0.25757
-0.25757
-0.25452
-0.25238
-0.24811
-0.24292
-0.23834
-0.23346
-0.22888
-0.22369
-0.22095
-0.21912
-0.21851
-0.21790
-0.21881
-0.21820
-0.21881
-0.21881
-0.21820
-0.21851
-0.21912
-0.21912
-0.21545
-0.21393
-0.20996
-0.20630
-0.19684
-0.18707
-0.17456
-0.15961
-0.14282
-0.12543
-0.10651
-0.09155
-0.07935
-0.07019
-0.06775
-0.06714
-0.07446
-0.08728
-0.09857
-0.11230
-0.12573
-0.13702
-0.14801
-0.15320
-0.15778
-0.15991
-0.15747
-0.15442
-0.15076
-0.14282
-0.13794
-0.12787
-0.12268
-0.11353
-0.10651
-0.09857
-0.08911
-0.08179
-0.07385
-0.06714
-0.05981
-0.05768
-0.05249
-0.04761
-0.04730
-0.04730
-0.04761
-0.05066
-0.05524
-0.06012
-0.06500
-0.07172
-0.07629
-0.08118
-0.08636
-0.08575
-0.08698
-0.08667
-0.08636
-0.08331
-0.08209
-0.08179
-0.08179
-0.08240
-0.08118
-0.08453
-0.08911
-0.09430
-0.09674
-0.10101
-0.10132
-0.10162
-0.10193
-0.09644
-0.09338
-0.08911
-0.08362
-0.07965
-0.07355
-0.06805
-0.06317
-0.05768
-0.05249
-0.05493
-0.05737
-0.06470
-0.06989
-0.07996
-0.08881
-0.09460
-0.10071
-0.10529
-0.11047
-0.11047
-0.11108
-0.11108
-0.11108
-0.11047
-0.11047
-0.10651
-0.09918
-0.08942
-0.07629
-0.06195
-0.04578
-0.03113
-0.02045
-0.01343
-0.01373
-0.02075
-0.02777
-0.04028
-0.05707
-0.07233
-0.08850
-0.10315
-0.11688
-0.12756
-0.13794
-0.14221
-0.14954
-0.15289
-0.15015
-0.14771
-0.13824
-0.12848
-0.11810
-0.10895
-0.09918
-0.08911
-0.08423
-0.08179
-0.08179
-0.08606
-0.08698
-0.09064
-0.09094
-0.09155
-0.09155
-0.09552
-0.09613
-0.09644
-0.09613
-0.09674
-0.09216
-0.09155
-0.08698
-0.08392
-0.08179
-0.07690
-0.07446
-0.06958
-0.06714
-0.06348
-0.06226
-0.06256
-0.06653
-0.07172
-0.07660
-0.07996
-0.08179
-0.08514
-0.08636
-0.08972
-0.09155
-0.09583
-0.09674
-0.09705
-0.09399
-0.08942
-0.08209
-0.07385
-0.06500
-0.05585
-0.04517
-0.04089
-0.03479
-0.03052
-0.02563
-0.02289
-0.02045
-0.01770
-0.02045
-0.02258
-0.02777
-0.03510
-0.04089
-0.04913
-0.05554
-0.06226
-0.06653
-0.06989
-0.07446
-0.07660
-0.08148
-0.08514
-0.08698
-0.08636
-0.08698
-0.08636
-0.08209
-0.07751
-0.06989
-0.06439
-0.05768
-0.05249
-0.04791
-0.04303
-0.04303
-0.03815
-0.03754
-0.03510
-0.03326
-0.02563
-0.02075
-0.01373
-0.00885
-0.00458
-0.00641
-0.00854
-0.01282
-0.02045
-0.02716
-0.03510
-0.04059
-0.04761
-0.05249
-0.05737
-0.06073
-0.06256
-0.06195
-0.06195
-0.06165
-0.05768
-0.05463
-0.04852
-0.04089
-0.03448
-0.02899
-0.02411
-0.01862
-0.01556
-0.01312
-0.01648
-0.01831
-0.02075
-0.02258
-0.02716
-0.02777
-0.02869
-0.02808
-0.03296
-0.03571
-0.03723
-0.03815
-0.03998
-0.03784
-0.03296
-0.03021
-0.02777
-0.02319
-0.01831
-0.01526
-0.01373
-0.00916
-0.00854
-0.00336
-0.00397
0.00122
0.00549
0.01373
0.01984
0.02838
0.04242
0.05219
0.06226
0.07172
0.08057
0.09064
0.09949
0.11017
0.11993
0.12695
0.13184
0.13214
0.12909
0.12360
0.11505
0.10529
0.10040
0.09033
0.08545
0.08331
0.08575
0.09033
0.10040
0.10956
0.11902
0.12909
0.13916
0.14435
0.14954
0.15198
0.15137
0.15564
0.15900
0.16479
0.17090
0.17517
0.17639
0.17609
0.17578
0.17334
0.16815
0.16144
0.15411
0.14832
0.14191
0.13428
0.12909
0.12238
0.11810
0.11017
0.10529
0.09521
0.08972
0.08118
0.07202
0.06195
0.05249
0.04333
0.03723
0.03174
0.03082
0.02655
0.02869
0.03021
0.03479
0.04059
0.04730
0.05463
0.06256
0.06714
0.06989
0.06653
0.06165
0.05280
0.04303
0.02869
0.01556
0.00427
-0.00580
-0.01831
-0.03021
-0.04517
-0.05707
-0.06897
-0.07904
-0.08575
-0.09460
-0.10345
-0.11322
-0.12054
-0.12817
-0.13489
-0.14221
-0.14771
-0.14954
-0.15442
-0.15747
-0.15991
-0.16266
-0.16388
-0.16510
-0.16449
-0.16479
-0.16449
-0.16479
-0.16479
-0.16052
-0.15991
-0.15503
-0.15045
-0.14221
-0.13702
-0.13062
-0.12329
-0.11353
-0.10590
-0.09857
-0.09369
-0.08911
-0.08636
-0.08667
-0.08698
-0.08698
-0.08240
-0.08209
-0.07721
-0.07416
-0.06714
-0.05951
-0.05463
-0.04944
-0.04730
-0.04791
-0.04517
-0.04272
-0.03845
-0.03082
-0.02106
-0.00336
0.01556
0.03784
0.06927
0.10742
0.15320
0.20630
0.26733
0.33569
0.40955
0.49194
0.58014
0.67261
0.76935
0.87006
0.97443
1.08429
1.19537
1.30707
1.42090
1.53412
1.64185
1.74591
1.83990
1.92719
2.00531
2.06879
2.11731
2.14325
2.14600
2.12646
2.09229
2.03766
1.96472
1.87195
1.76361
1.63788
1.49841
1.35040
1.18988
1.02570
0.85480
0.68115
0.50659
0.33478
0.16968
0.01434
-0.13062
-0.26184
-0.37903
-0.48492
-0.58044
-0.66589
-0.73669
-0.79803
-0.85144
-0.89172
-0.92041
-0.94055
-0.95062
-0.95276
-0.94788
-0.93597
-0.92163
-0.89935
-0.87799
-0.85358
-0.82703
-0.80109
-0.77728
-0.75165
-0.72906
-0.70709
-0.68756
-0.66833
-0.64850
-0.63385
-0.61401
-0.59937
-0.58289
-0.56793
-0.55084
-0.53558
-0.51605
-0.49774
-0.47760
-0.45776
-0.44281
-0.42603
-0.41595
-0.40649
-0.39917
-0.39429
-0.39001
-0.38971
-0.38910
-0.38971
-0.38940
-0.38910
-0.38910
-0.38666
-0.38208
-0.37781
-0.37201
-0.36285
-0.35309
-0.34729
-0.33813
-0.32776
-0.31891
-0.30884
-0.29877
-0.28900
-0.28168
-0.27740
-0.27679
-0.27649
-0.27679
-0.27954
-0.28198
-0.28259
-0.28198
-0.28137
-0.28198
-0.27740
-0.27130
-0.26459
-0.25604
-0.25024
-0.24048
-0.22675
-0.21362
-0.20142
-0.18951
-0.17731
-0.16724
-0.15778
-0.14801
-0.14008
-0.13580
-0.13092
-0.13000
-0.13031
-0.13031
-0.13458
-0.13519
-0.13977
-0.13550
-0.13519
-0.13062
-0.12543
-0.11810
-0.11200
-0.10651
-0.10101
-0.10132
-0.10162
-0.10132
-0.10162
-0.10193
-0.09827
-0.09369
-0.08453
-0.07477
-0.06470
-0.05524
-0.04974
-0.04547
-0.03998
-0.03479
-0.03052
-0.02502
-0.02380
-0.01831
-0.01373
-0.00580
-0.00122
0.00427
0.01038
0.01556
0.02106
0.02777
0.03326
0.03571
0.03998
0.04333
0.04547
0.04974
0.05432
0.05737
0.06287
0.06714
0.07263
0.07660
0.08087
0.08636
0.08850
0.09064
0.09308
0.09186
0.09277
0.09613
0.10010
0.10468
0.11536
0.12451
0.13428
0.14374
0.15381
0.16357
0.17731
0.19104
0.20233
0.21545
0.22614
0.23224
0.23956
0.24231
0.24384
0.24414
0.24658
0.24902
0.25177
0.25360
0.25787
0.26337
0.26855
0.27344
0.28046
0.28595
0.29053
0.29327
0.29724
0.29755
0.29510
0.29358
0.28839
0.28381
0.28046
0.27771
0.27435
0.27344
0.26917
0.26855
0.26428
0.26367
0.25970
0.25787
0.25879
0.25879
0.25879
0.26123
0.26367
0.26337
0.26428
0.26093
0.25604
0.24994
0.24231
0.22919
0.21759
0.20477
0.19348
0.18341
0.16907
0.15869
0.15411
0.14709
0.14709
0.14679
0.14648
0.14404
0.13947
0.12909
0.12177
0.10986
0.10010
0.08575
0.07507
0.06226
0.04822
0.03540
0.02380
0.01343
0.00397
-0.00610
-0.01587
-0.02594
-0.03540
-0.04517
-0.05432
-0.06439
-0.07416
-0.08392
-0.09338
-0.10376
-0.11353
-0.12299
-0.13275
-0.14252
-0.15625
-0.16937
-0.18402
-0.19928
-0.21393
-0.22522
-0.23560
-0.24139
-0.24780
-0.24811
-0.24933
-0.25238
-0.25238
-0.25238
-0.24872
-0.24780
-0.24536
-0.24323
-0.23895
-0.23315
-0.22980
-0.22522
-0.22125
-0.21851
-0.21851
-0.21881
-0.21881
-0.22308
-0.22797
-0.23560
-0.24780
-0.25970
-0.27344
-0.28412
-0.29388
-0.30304
-0.31097
-0.31525
-0.31647
-0.31616
-0.31616
-0.31342
-0.31158
-0.30670
-0.29907
-0.29388
-0.28442
-0.27161
-0.26062
-0.24994
-0.24139
-0.23560
-0.22858
-0.22125
-0.21576
-0.21088
-0.20660
-0.20081
-0.19928
-0.19928
-0.19897
-0.19867
-0.20264
-0.20721
-0.21179
-0.21393
-0.21820
-0.21759
-0.21851
-0.21484
-0.21088
-0.20599
-0.20142
-0.19684
-0.19348
-0.18982
-0.18524
-0.17731
-0.17151
-0.16724
-0.15991
-0.15533
-0.15015
-0.14557
-0.14252
-0.13947
-0.13489
-0.13062
-0.12756
-0.12085
-0.11658
-0.10895
-0.10162
-0.09399
-0.08667
-0.07904
-0.07477
-0.07202
-0.06989
-0.06775
-0.07111
-0.07507
-0.08148
-0.08820
-0.09583
-0.10376
-0.11108
-0.11566
-0.11627
-0.11566
-0.11353
-0.10803
-0.10376
-0.09705
-0.09155
-0.08789
-0.08179
-0.07690
-0.07446
-0.07172
-0.06866
-0.06714
-0.06226
-0.06256
-0.05768
-0.05524
-0.05005
-0.04364
-0.03601
-0.03052
-0.02533
-0.02319
-0.02777
-0.03052
-0.03998
-0.05035
-0.05951
-0.06958
-0.07965
-0.08636
-0.08881
-0.09155
-0.08667
-0.08423
-0.08179
-0.08240
-0.08179
-0.08606
-0.08698
-0.09064
-0.09186
-0.09521
-0.09613
-0.09674
-0.09216
-0.09186
-0.08881
-0.08667
-0.08698
-0.08667
-0.08636
-0.08698
-0.08942
-0.09155
-0.09399
-0.09644
-0.09644
-0.09613
-0.09430
-0.09155
-0.08759
-0.08636
-0.08209
-0.08148
-0.07721
-0.07629
-0.07233
-0.06744
-0.06683
-0.06744
-0.06714
-0.07172
-0.07477
-0.07965
-0.08179
-0.08484
-0.08667
-0.08667
-0.08667
-0.08698
-0.08179
-0.07935
-0.07690
-0.07172
-0.07202
-0.06744
-0.06744
-0.07141
-0.07446
-0.07629
-0.07996
-0.08209
-0.08514
-0.08667
-0.08667
-0.08667
-0.08636
-0.08636
-0.08698
-0.08270
-0.08179
-0.07721
-0.07690
-0.07660
-0.07629
-0.07690
-0.07721
-0.08026
-0.08087
-0.08575
-0.08698
-0.09094
-0.09552
-0.09644
-0.09674
-0.09613
-0.09369
-0.08850
-0.08240
-0.07538
-0.06500
-0.05524
-0.04547
-0.04028
-0.03265
-0.02899
-0.02808
-0.02869
-0.02808
-0.03235
-0.03723
-0.04211
-0.04517
-0.04791
-0.05157
-0.05310
-0.05554
-0.05737
-0.06012
-0.06256
-0.06744
-0.07141
-0.07416
-0.07690
-0.07721
-0.07721
-0.06958
-0.06012
-0.04547
-0.02808
-0.01343
0.00153
0.01068
0.01099
0.00793
-0.00092
-0.01312
-0.03174
-0.05188
-0.06683
-0.08453
-0.09369
-0.10071
-0.10559
-0.10620
-0.10376
-0.09888
-0.09186
-0.08514
-0.07935
-0.06958
-0.06073
-0.05554
-0.04822
-0.04089
-0.03052
-0.02106
-0.01373
-0.00671
-0.00397
-0.00397
-0.00336
-0.00397
-0.00854
-0.01312
-0.01770
-0.02258
-0.02777
-0.03021
-0.03296
-0.03326
-0.03235
-0.03296
-0.03571
-0.03723
-0.03784
-0.03510
-0.03296
-0.02899
-0.02350
-0.01892
-0.01556
-0.01099
-0.00885
-0.00885
-0.00854
-0.00885
-0.01099
-0.01587
-0.01770
-0.02228
-0.02686
-0.02838
-0.03174
-0.03326
-0.03265
-0.02899
-0.02808
-0.02319
-0.02075
-0.01526
-0.00946
-0.00153
0.00854
0.01343
0.02075
0.02502
0.02594
0.02594
0.02563
0.02594
0.02594
0.02563
0.03052
0.03021
0.03510
0.03632
0.03571
0.03510
0.03571
0.03540
0.03937
0.04486
0.05219
0.05737
0.06653
0.07599
0.08789
0.09979
0.11261
0.12451
0.13123
0.13580
0.13702
0.13672
0.13275
0.12726
0.12299
0.11963
0.11719
0.11719
0.11749
0.11749
0.11993
0.12299
0.12177
0.12207
0.12177
0.12207
0.12238
0.12512
0.12787
0.12726
0.12970
0.13214
0.13641
0.13947
0.14404
0.14923
0.15137
0.15564
0.15564
0.15350
0.15106
0.14709
0.14038
0.13367
0.12482
0.11963
0.11292
0.10498
0.09979
0.09033
0.08575
0.07782
0.07172
0.06470
0.05768
0.05219
0.05035
0.04730
0.04486
0.04547
0.04913
0.05737
0.06653
0.07690
0.08972
0.09979
0.10895
0.11261
0.11230
0.10925
0.09644
0.07965
0.05371
0.02472
-0.00519
-0.03754
-0.06836
-0.09583
-0.11963
-0.13947
-0.15625
-0.16632
-0.16998
-0.16907
-0.16968
-0.16663
-0.16174
-0.15991
-0.15533
-0.15198
-0.15045
-0.14984
-0.14557
-0.14557
-0.14496
-0.14069
-0.13824
-0.13519
-0.13123
-0.12573
-0.12573
-0.12115
-0.12054
-0.11780
-0.11597
-0.11322
-0.10651
-0.09918
-0.09369
-0.08423
-0.07904
-0.07690
-0.07263
-0.07446
-0.07660
-0.08118
-0.08698
-0.09125
-0.09613
-0.10101
-0.10620
-0.11292
-0.11841
-0.12024
-0.12451
-0.12970
-0.13306
-0.13489
-0.13519
-0.13458
-0.13062
-0.12817
-0.11871
-0.10590
-0.08972
-0.06866
-0.04364
-0.01678
0.01678
0.05615
0.09857
0.15045
0.20813
0.27069
0.33661
0.41016
0.48859
0.57129
0.66132
0.75409
0.85114
0.95276
1.05835
1.17035
1.28571
1.39893
1.51459
1.62476
1.72516
1.82068
1.90643
1.98273
2.04437
2.09229
2.12189
2.13379
2.12311
2.09534
2.05170
1.98486
1.90216
1.79779
1.67694
1.54083
1.39404
1.23840
1.07697
0.91095
0.74585
0.57922
0.41595
0.25909
0.10651
-0.03693
-0.17242
-0.29205
-0.40222
-0.50507
-0.59814
-0.67963
-0.75073
-0.81238
-0.85938
-0.89722
-0.92377
-0.94116
-0.95001
-0.95062
-0.94879
-0.93597
-0.92163
-0.90302
-0.88257
-0.86212
-0.83618
-0.80780
-0.78064
-0.75409
-0.72876
-0.70740
-0.68451
-0.66345
-0.64331
-0.62408
-0.60211
-0.57983
-0.55756
-0.53680
-0.51727
-0.49713
-0.48492
-0.47485
-0.46539
-0.46021
-0.45807
-0.45807
-0.45746
-0.45746
-0.45288
-0.44983
-0.44342
-0.43915
-0.43335
-0.43335
-0.43274
-0.43243
-0.43762
-0.44250
-0.44708
-0.45197
-0.45319
-0.45258
-0.44800
-0.44067
-0.43121
-0.42053
-0.41077
-0.39917
-0.38727
-0.37323
-0.36011
-0.34851
-0.33386
-0.32410
-0.31433
-0.30457
-0.29510
-0.28503
-0.27222
-0.26062
-0.24994
-0.24109
-0.23621
-0.23041
-0.22766
-0.22552
-0.22339
-0.21942
-0.21423
-0.20935
-0.20447
-0.19958
-0.19440
-0.18982
-0.18555
-0.18433
-0.17975
-0.17670
-0.17426
-0.16998
-0.16510
-0.16022
-0.15259
-0.14709
-0.14038
-0.13336
-0.12787
-0.12268
-0.12054
-0.11810
-0.11597
-0.11292
-0.10834
-0.10376
-0.09430
-0.08423
-0.07477
-0.06500
-0.05096
-0.03845
-0.02563
-0.01862
-0.01373
-0.00854
-0.00854
-0.00885
-0.00854
-0.00824
-0.00793
-0.01129
-0.01343
-0.01343
-0.01312
-0.01617
-0.01801
-0.01862
-0.01495
-0.01282
-0.00671
-0.00092
0.00793
0.01862
0.02808
0.03815
0.04333
0.04791
0.04974
0.05035
0.04974
0.05249
0.05432
0.05707
0.06042
0.06622
0.07233
0.08057
0.09003
0.10223
0.11414
0.12878
0.14618
0.16296
0.18005
0.19958
0.21881
0.23163
0.24170
0.24445
0.24200
0.23193
0.22278
0.21271
0.20325
0.19653
0.19531
0.19806
0.20294
0.20935
0.21484
0.21973
0.22430
0.22888
0.22949
0.22980
0.23254
0.23407
0.23804
0.23895
0.24567
0.25177
0.26093
0.26581
0.27313
0.27740
0.28198
0.28381
0.28259
0.28351
0.28076
0.27893
0.27374
0.27344
0.26947
0.26886
0.26855
0.26855
0.26581
0.26428
0.25879
0.25208
0.24597
0.23926
0.23224
0.22705
0.22034
0.21698
0.21423
0.21759
0.22034
0.22247
0.22461
0.22491
0.22003
0.21729
0.21027
0.20325
0.19348
0.18341
0.16937
0.15442
0.13733
0.11810
0.09857
0.08026
0.06104
0.04608
0.03052
0.01892
0.00671
-0.00122
-0.00763
-0.01526
-0.02045
-0.02777
-0.03510
-0.04059
-0.04791
-0.05219
-0.05981
-0.06927
-0.07477
-0.08362
-0.09308
-0.10254
-0.11383
-0.12299
-0.13672
-0.14954
-0.16174
-0.17639
-0.18646
-0.19318
-0.19867
-0.20325
-0.20721
-0.20813
-0.21301
-0.21332
-0.21332
-0.21393
-0.21332
-0.21576
-0.22095
-0.22766
-0.23560
-0.24506
-0.25543
-0.26428
-0.27802
-0.29144
-0.30334
-0.31738
-0.32745
-0.33783
-0.34454
-0.34943
-0.35095
-0.35065
-0.34576
-0.33813
-0.32867
-0.31952
-0.30853
-0.29480
-0.28198
-0.26978
-0.26062
-0.25269
-0.24811
-0.24750
-0.24811
-0.25269
-0.25787
-0.26154
-0.26459
-0.26978
-0.27252
-0.27435
-0.27405
-0.27161
-0.26917
-0.26428
-0.25970
-0.25787
-0.25269
-0.25085
-0.24841
-0.24323
-0.24017
-0.23590
-0.23315
-0.22858
-0.22369
-0.21912
-0.21606
-0.21179
-0.20599
-0.20111
-0.19653
-0.19226
-0.18646
-0.18036
-0.17487
-0.17029
-0.16571
-0.15778
-0.15198
-0.14526
-0.13794
-0.13245
-0.13031
-0.12604
-0.12543
-0.12512
-0.12360
-0.12054
-0.11963
-0.11383
-0.10803
-0.09979
-0.09186
-0.08789
-0.08209
-0.08179
-0.08179
-0.08423
-0.09125
-0.09857
-0.10590
-0.11322
-0.11841
-0.12329
-0.12543
-0.12268
-0.12085
-0.11841
-0.11627
-0.11322
-0.11047
-0.10620
-0.10315
-0.10132
-0.09857
-0.09644
-0.09186
-0.08942
-0.08453
-0.07904
-0.07385
-0.06927
-0.06500
-0.06012
-0.05341
-0.05035
-0.04761
-0.04333
-0.04303
-0.04211
-0.04272
-0.04547
-0.04730
-0.04791
-0.04730
-0.05066
-0.05249
-0.05707
-0.06470
-0.07111
-0.07935
-0.08453
-0.08667
-0.08270
-0.07965
-0.07019
-0.06500
-0.05829
-0.05249
-0.05219
-0.05524
-0.05981
-0.06927
-0.07935
-0.08881
-0.09857
-0.10559
-0.11292
-0.11597
-0.11993
-0.12177
-0.12054
-0.12115
-0.11902
-0.11658
-0.11139
-0.10864
-0.10345
-0.09888
-0.09399
-0.08698
-0.07935
-0.07385
-0.06958
-0.06470
-0.06226
-0.05981
-0.05737
-0.05768
-0.05737
-0.05737
-0.05768
-0.05768
-0.05798
-0.05798
-0.05310
-0.05280
-0.04822
-0.04303
-0.03815
-0.03296
-0.03052
-0.02808
-0.02838
-0.02777
-0.02808
-0.03265
-0.03723
-0.04211
-0.04639
-0.05035
-0.05493
-0.06012
-0.06470
-0.07385
-0.07965
-0.08392
-0.08667
-0.09094
-0.08850
-0.08392
-0.07477
-0.06561
-0.05341
-0.04089
-0.03052
-0.02075
-0.01190
-0.00122
0.00519
0.01007
0.01129
0.00732
-0.00122
-0.00549
-0.01526
-0.02991
-0.04303
-0.05371
-0.06897
-0.08362
-0.09338
-0.10315
-0.10620
-0.10986
-0.11078
-0.10803
-0.10376
-0.09888
-0.09186
-0.08484
-0.07721
-0.07050
-0.06470
-0.05798
-0.05524
-0.05096
-0.04486
-0.04059
-0.03357
-0.02625
-0.02045
-0.01831
-0.01343
-0.01343
-0.01343
-0.01312
-0.01312
-0.01526
-0.01831
-0.02228
-0.02563
-0.02747
-0.03235
-0.03540
-0.03723
-0.04150
-0.04272
-0.04791
-0.04791
-0.04547
-0.04333
-0.03815
-0.03510
-0.03082
-0.02472
-0.02289
-0.01801
-0.01801
-0.01404
-0.00916
-0.00610
-0.00336
0.00122
0.00153
0.00580
0.00793
0.01068
0.01556
0.01587
0.01190
0.00824
0.00397
-0.00092
-0.00397
-0.00366
-0.00183
0.00366
0.01312
0.01862
0.02319
0.02533
0.02533
0.02502
0.02289
0.02075
0.01617
0.01343
0.01129
0.00854
0.00671
0.00702
0.01068
0.00793
0.00610
-0.00092
-0.00610
-0.01465
-0.02563
-0.03510
-0.04150
-0.04974
-0.05707
-0.06165
-0.06287
-0.06256
-0.06226
-0.05951
-0.05707
-0.05310
-0.04822
-0.04089
-0.03510
-0.02869
-0.02380
-0.01801
-0.01282
-0.01312
-0.01373
-0.01312
-0.01282
-0.01312
-0.01282
-0.01282
-0.01312
-0.01312
-0.00885
-0.00427
0.00305
0.01038
0.01801
0.02777
0.03326
0.04211
0.04730
0.04974
0.04974
0.05005
0.05035
0.05035
0.05280
0.05493
0.05737
0.06165
0.06866
0.07660
0.08057
0.09003
0.09521
0.10437
0.11169
0.11780
0.11810
0.11749
0.11292
0.10803
0.10071
0.09460
0.09064
0.08820
0.08789
0.09033
0.09521
0.09979
0.10437
0.11017
0.11505
0.12024
0.12451
0.12909
0.13611
0.14374
0.15350
0.16327
0.16876
0.17517
0.18036
0.18585
0.18280
0.18097
0.17700
0.17151
0.16846
0.16663
0.16235
0.15900
0.15350
0.14740
0.13977
0.13031
0.12054
0.11047
0.10284
0.09552
0.08575
0.08118
0.07172
0.06500
0.05798
0.05005
0.04608
0.04059
0.03601
0.03143
0.02838
0.02502
0.02563
0.02960
0.03052
0.03510
0.03754
0.04059
0.03998
0.04028
0.03784
0.03326
0.02380
0.01495
0.00458
-0.00610
-0.01465
-0.02960
-0.03967
-0.05035
-0.05951
-0.06683
-0.07385
-0.07660
-0.07904
-0.08148
-0.08148
-0.08606
-0.09125
-0.09521
-0.10132
-0.10559
-0.10986
-0.11536
-0.11993
-0.12482
-0.12543
-0.12970
-0.13062
-0.12543
-0.12146
-0.11658
-0.11078
-0.10681
-0.10620
-0.10559
-0.10590
-0.10620
-0.10956
-0.11108
-0.11078
-0.10864
-0.10620
-0.10559
-0.10590
-0.10620
-0.10864
-0.11078
-0.11566
-0.11993
-0.12482
-0.12970
-0.13489
-0.13519
-0.13519
-0.13062
-0.12787
-0.12268
-0.11871
-0.11292
-0.10834
-0.09949
-0.08728
-0.07233
-0.05127
-0.02625
0.00702
0.04364
0.08514
0.13428
0.19257
0.25085
0.31616
0.38025
0.45166
0.52551
0.60608
0.69122
0.77942
0.87189
0.96924
1.06903
1.17340
1.28113
1.38947
1.49353
1.59607
1.69586
1.79016
1.87805
1.95618
2.01996
2.06787
2.09839
2.10968
2.10022
2.07184
2.02850
1.96533
1.88690
1.79016
1.67358
1.53992
1.39648
1.24359
1.08459
0.91888
0.75287
0.58441
0.42053
0.25726
0.10406
-0.03998
-0.17487
-0.29846
-0.40985
-0.51117
-0.59906
-0.67596
-0.74493
-0.80353
-0.85297
-0.89447
-0.92407
-0.94543
-0.95764
-0.96497
-0.95856
-0.94849
-0.93170
-0.91003
-0.88593
-0.85724
-0.82733
-0.79834
-0.76904
-0.73975
-0.71320
-0.68909
-0.66681
-0.64697
-0.62958
-0.61646
-0.60303
-0.59204
-0.58319
-0.56854
-0.55817
-0.54413
-0.53375
-0.52124
-0.50995
-0.49957
-0.49255
-0.48492
-0.48004
-0.47455
-0.47302
-0.46722
-0.46295
-0.45959
-0.45288
-0.44617
-0.43579
-0.42389
-0.40894
-0.39307
-0.37720
-0.36377
-0.35339
-0.34729
-0.34088
-0.33783
-0.33600
-0.33600
-0.33508
-0.33997
-0.34058
-0.34088
-0.34058
-0.33691
-0.33173
-0.32623
-0.31891
-0.31219
-0.30426
-0.29907
-0.28961
-0.28442
-0.27496
-0.26947
-0.26276
-0.25574
-0.25055
-0.24811
-0.24750
-0.24780
-0.24719
-0.24750
-0.24506
-0.24323
-0.23895
-0.23102
-0.22583
-0.22064
-0.21423
-0.20660
-0.19684
-0.18707
-0.17761
-0.16693
-0.15320
-0.14282
-0.13306
-0.12329
-0.11597
-0.10864
-0.10284
-0.09888
-0.09613
-0.09583
-0.09613
-0.09613
-0.09644
-0.09644
-0.09705
-0.09705
-0.09583
-0.09705
-0.09644
-0.09613
-0.09644
-0.09430
-0.08911
-0.08209
-0.07233
-0.06042
-0.04822
-0.03632
-0.02136
-0.01129
-0.00244
0.00793
0.01495
0.01984
0.02533
0.02594
0.02563
0.02594
0.02106
0.01801
0.01617
0.01404
0.01099
0.01556
0.01831
0.02533
0.03204
0.04517
0.05646
0.07141
0.08270
0.09491
0.10498
0.11902
0.12634
0.13397
0.13916
0.14191
0.13916
0.13672
0.13275
0.12787
0.12207
0.12177
0.12238
0.12207
0.12451
0.12939
0.13428
0.14343
0.15106
0.15869
0.16541
0.17059
0.17334
0.17578
0.17975
0.18402
0.18555
0.19073
0.19012
0.19226
0.19562
0.19806
0.20264
0.20721
0.21515
0.22186
0.22888
0.23590
0.24567
0.25269
0.26062
0.26642
0.27130
0.27405
0.27374
0.27130
0.26611
0.26123
0.25208
0.24689
0.23987
0.23254
0.22919
0.22552
0.22491
0.22430
0.22217
0.22034
0.22064
0.22095
0.21973
0.21973
0.22003
0.22003
0.22003
0.21576
0.21271
0.21057
0.20782
0.20447
0.20569
0.20111
0.20020
0.19623
0.19104
0.18341
0.17120
0.15686
0.13580
0.11108
0.08698
0.06134
0.03510
0.00763
-0.01648
-0.04150
-0.06134
-0.08057
-0.09552
-0.10803
-0.12177
-0.13184
-0.13794
-0.14709
-0.15411
-0.16296
-0.17151
-0.18097
-0.18707
-0.19653
-0.20569
-0.21606
-0.22583
-0.23071
-0.23743
-0.24292
-0.24750
-0.25269
-0.25513
-0.25757
-0.26001
-0.26215
-0.26489
-0.26703
-0.26764
-0.26978
-0.27161
-0.27130
-0.27191
-0.27161
-0.27130
-0.27435
-0.27649
-0.27649
-0.27710
-0.28076
-0.28137
-0.28168
-0.28137
-0.28107
-0.28320
-0.28656
-0.28687
-0.28503
-0.28198
-0.27466
-0.26489
-0.25574
-0.24597
-0.24048
-0.23315
-0.23315
-0.23376
-0.23346
-0.23529
-0.24109
-0.24506
-0.25208
-0.26031
-0.26917
-0.27435
-0.27679
-0.28137
-0.27924
-0.27679
-0.27405
-0.27191
-0.26978
-0.26733
-0.26703
-0.26978
-0.27191
-0.27618
-0.28076
-0.28595
-0.28931
-0.28900
-0.28717
-0.28229
-0.27527
-0.27008
-0.26093
-0.25085
-0.24109
-0.23651
-0.22644
-0.21729
-0.21179
-0.20477
-0.19989
-0.19470
-0.18951
-0.18707
-0.18433
-0.17944
-0.17548
-0.16998
-0.16327
-0.15778
-0.15289
-0.14557
-0.13794
-0.13153
-0.12360
-0.11810
-0.11139
-0.10376
-0.09888
-0.09216
-0.08667
-0.08698
-0.08698
-0.08698
-0.08667
-0.08636
-0.08606
-0.08484
-0.07935
-0.07263
-0.06073
-0.05280
-0.04608
-0.04242
-0.04272
-0.04547
-0.05493
-0.06409
-0.07660
-0.09277
-0.10956
-0.12482
-0.13733
-0.14709
-0.15259
-0.15717
-0.15961
-0.15533
-0.15259
-0.14496
-0.13824
-0.13245
-0.12634
-0.12115
-0.11414
-0.10834
-0.10651
-0.10193
-0.10101
-0.10132
-0.10132
-0.10162
-0.10101
-0.10162
-0.10132
-0.10162
-0.09705
-0.09430
-0.08850
-0.08423
-0.07690
-0.07263
-0.06561
-0.05981
-0.05371
-0.04791
-0.04730
-0.04608
-0.04761
-0.05005
-0.05524
-0.06470
-0.06958
-0.07629
-0.08392
-0.08911
-0.09521
-0.09918
-0.10101
-0.10132
-0.10162
-0.09888
-0.09583
-0.09186
-0.08514
-0.07996
-0.06989
-0.05646
-0.04608
-0.03357
-0.02136
-0.01587
-0.01312
-0.01282
-0.02014
-0.02960
-0.04395
-0.05859
-0.07111
-0.08362
-0.09766
-0.10406
-0.11047
-0.11536
-0.11627
-0.11597
-0.11627
-0.11566
-0.11536
-0.11078
-0.10803
-0.10376
-0.09888
-0.09247
-0.08453
-0.07996
-0.07294
-0.06744
-0.06775
-0.06744
-0.07080
-0.07446
-0.07874
-0.08423
-0.08636
-0.09094
-0.09430
-0.09644
-0.09613
-0.09399
-0.09155
-0.08698
-0.08209
-0.07721
-0.06989
-0.06500
-0.05524
-0.04974
-0.04333
-0.03540
-0.03082
-0.02594
-0.02075
-0.01801
-0.01831
-0.02106
-0.02533
-0.03113
-0.03662
-0.04211
-0.04700
-0.04761
-0.04761
-0.04761
-0.04333
-0.04089
-0.03754
-0.03387
-0.03326
-0.03510
-0.03723
-0.04486
-0.05066
-0.05615
-0.06195
-0.06287
-0.06226
-0.05890
-0.05463
-0.04822
-0.04303
-0.03815
-0.03815
-0.03784
-0.03693
-0.03723
-0.03815
-0.03754
-0.03754
-0.03815
-0.03723
-0.03754
-0.03723
-0.03693
-0.03784
-0.03326
-0.03326
-0.02747
-0.02716
-0.02380
-0.02014
-0.01587
-0.01068
-0.00214
0.00580
0.01343
0.01831
0.02106
0.01862
0.01373
0.00885
-0.00153
-0.01221
-0.02502
-0.03906
-0.04974
-0.05646
-0.06195
-0.06226
-0.06012
-0.05493
-0.04608
-0.03540
-0.02686
-0.01617
-0.01068
-0.00824
-0.01282
-0.01556
-0.02106
-0.02716
-0.03235
-0.03693
-0.03784
-0.04211
-0.04333
-0.04303
-0.04547
-0.04761
-0.04791
-0.04761
-0.04730
-0.04791
-0.04761
-0.04486
-0.04242
-0.03845
-0.03754
-0.03510
-0.03265
-0.03265
-0.02838
-0.02472
-0.02380
-0.01831
-0.01587
-0.01343
-0.01312
-0.00824
-0.00854
-0.00793
-0.00366
-0.00366
-0.00793
-0.00854
-0.01282
-0.01587
-0.01862
-0.02319
-0.02533
-0.02777
-0.02808
-0.02747
-0.02777
-0.02350
-0.01648
-0.00671
0.00336
0.01709
0.02777
0.04120
0.05188
0.06165
0.07141
0.07874
0.07935
0.07935
0.07507
0.06805
0.05432
0.04333
0.02899
0.01617
0.00427
-0.00580
-0.01587
-0.02472
-0.03174
-0.03326
-0.02777
-0.02136
-0.01190
-0.00122
0.01190
0.02319
0.03052
0.03693
0.04395
0.04913
0.05463
0.05920
0.06378
0.06897
0.07233
0.07446
0.07874
0.07935
0.08179
0.08331
0.08545
0.09064
0.09674
0.10437
0.11017
0.11902
0.12451
0.13397
0.14099
0.14893
0.15808
0.16327
0.17303
0.18311
0.19012
0.19501
0.19562
0.19562
0.19562
0.19135
0.18677
0.18341
0.17853
0.17578
0.17334
0.17120
0.17151
0.17090
0.17120
0.17090
0.16846
0.16632
0.16602
0.16632
0.16327
0.16144
0.15717
0.15228
0.14740
0.14221
0.13763
0.13275
0.12787
0.12268
0.11810
0.11047
0.10529
0.09583
0.08575
0.07263
0.06042
0.04608
0.03357
0.02014
0.00946
0.00000
-0.01099
-0.01770
-0.02289
-0.02716
-0.03265
-0.03479
-0.04028
-0.04517
-0.05005
-0.05493
-0.06378
-0.07324
-0.08362
-0.09369
-0.10284
-0.11292
-0.12207
-0.12787
-0.13519
-0.13794
-0.14008
-0.14069
-0.14038
-0.14008
-0.13763
-0.13306
-0.12756
-0.12177
-0.11414
-0.10895
-0.10193
-0.09430
-0.08881
-0.08453
-0.08148
-0.08118
-0.08209
-0.08179
-0.08148
-0.08179
-0.08179
-0.08209
-0.08209
-0.08179
-0.08636
-0.08942
-0.09399
-0.09857
-0.10376
-0.10956
-0.11139
-0.11566
-0.11536
-0.11871
-0.12024
-0.12451
-0.12543
-0.13000
-0.12970
-0.13062
-0.13000
-0.13031
-0.12634
-0.11871
-0.10925
-0.09674
-0.08240
-0.05951
-0.03448
-0.00549
0.02594
0.06195
0.09552
0.13672
0.18036
0.22858
0.27985
0.33356
0.39459
0.46143
0.53192
0.61005
0.69183
0.78033
0.87677
0.97717
1.08246
1.19385
1.30615
1.42090
1.53229
1.64062
1.74133
1.83289
1.91345
1.98730
2.04681
2.09259
2.11548
2.12280
2.11029
2.08191
2.03400
1.96747
1.88171
1.77460
1.65375
1.51581
1.36383
1.20483
1.04340
0.87524
0.70770
0.54047
0.37537
0.21576
0.06348
-0.08148
-0.21698
-0.33936
-0.45135
-0.55298
-0.64423
-0.72388
-0.79254
-0.85144
-0.89844
-0.93201
-0.95428
-0.96954
-0.97595
-0.97565
-0.97260
-0.96344
-0.94940
-0.93536
-0.91766
-0.89447
-0.87006
-0.84076
-0.80872
-0.77484
-0.74310
-0.70984
-0.67719
-0.64789
-0.61768
-0.59326
-0.57129
-0.55176
-0.53223
-0.51727
-0.50446
-0.49103
-0.48096
-0.47150
-0.46051
-0.45349
-0.44830
-0.44769
-0.44739
-0.44800
-0.44769
-0.44495
-0.44312
-0.44067
-0.43579
-0.42633
-0.42084
-0.40802
-0.39825
-0.38788
-0.37781
-0.37079
-0.36346
-0.36072
-0.36011
-0.36041
-0.36011
-0.35980
-0.35950
-0.36011
-0.35553
-0.35065
-0.34424
-0.33630
-0.32898
-0.31525
-0.30151
-0.28748
-0.27496
-0.26062
-0.25116
-0.24414
-0.23651
-0.23010
-0.22369
-0.22125
-0.21820
-0.21759
-0.21790
-0.21881
-0.21881
-0.21393
-0.21118
-0.20386
-0.19745
-0.18677
-0.17761
-0.17059
-0.16296
-0.15533
-0.15045
-0.14557
-0.14282
-0.14008
-0.14069
-0.14435
-0.14496
-0.14557
-0.14465
-0.14099
-0.13794
-0.13580
-0.13062
-0.12634
-0.11871
-0.11322
-0.10681
-0.09918
-0.08972
-0.08270
-0.07507
-0.06500
-0.06042
-0.05280
-0.05096
-0.04761
-0.04272
-0.03815
-0.03479
-0.03265
-0.03296
-0.02869
-0.02747
-0.02838
-0.02777
-0.03265
-0.03296
-0.03296
-0.03082
-0.02747
-0.02533
-0.02167
-0.01495
-0.01068
-0.00488
0.00305
0.01282
0.02319
0.03448
0.04700
0.05676
0.06592
0.07416
0.07874
0.08087
0.08331
0.08362
0.08301
0.08545
0.08698
0.09460
0.10010
0.10956
0.11932
0.13092
0.14404
0.15778
0.16785
0.17761
0.18768
0.19348
0.20050
0.20691
0.21210
0.22125
0.22858
0.23315
0.23865
0.23987
0.23712
0.23224
0.22827
0.22217
0.21667
0.20966
0.21027
0.20996
0.20966
0.21301
0.21698
0.22614
0.23193
0.24139
0.25269
0.26642
0.27496
0.28076
0.29053
0.29572
0.29968
0.30304
0.30060
0.29602
0.29053
0.28412
0.27649
0.27039
0.26886
0.26855
0.26886
0.27283
0.27802
0.27832
0.28198
0.28320
0.28107
0.27588
0.26672
0.25665
0.24719
0.23834
0.23224
0.22247
0.21576
0.20844
0.19897
0.19348
0.18402
0.17120
0.15961
0.14954
0.14038
0.13062
0.12024
0.11017
0.10498
0.09583
0.08667
0.08118
0.07507
0.07141
0.06744
0.06256
0.05707
0.05249
0.04364
0.03387
0.02167
0.00702
-0.01190
-0.03113
-0.05127
-0.07141
-0.09033
-0.10986
-0.12909
-0.14832
-0.16327
-0.17853
-0.19135
-0.20233
-0.21301
-0.22034
-0.22736
-0.23315
-0.23712
-0.24231
-0.24658
-0.25177
-0.25696
-0.26154
-0.26855
-0.27435
-0.27954
-0.28442
-0.28870
-0.29114
-0.29602
-0.29602
-0.29816
-0.30151
-0.30090
-0.29938
-0.29572
-0.29633
-0.29694
-0.29175
-0.29144
-0.29144
-0.29114
-0.29602
-0.29694
-0.29663
-0.29633
-0.29999
-0.30151
-0.30396
-0.30670
-0.30640
-0.30579
-0.30182
-0.30151
-0.29755
-0.29144
-0.28687
-0.28412
-0.28168
-0.27954
-0.27710
-0.27496
-0.26917
-0.26459
-0.25818
-0.25330
-0.24872
-0.24353
-0.23804
-0.23804
-0.23346
-0.23102
-0.22827
-0.22552
-0.22339
-0.22278
-0.22369
-0.22308
-0.22369
-0.22278
-0.22369
-0.22186
-0.21759
-0.21606
-0.21149
-0.20935
-0.20630
-0.20325
-0.20416
-0.20386
-0.20325
-0.20416
-0.20660
-0.20874
-0.21088
-0.21393
-0.21332
-0.21362
-0.21149
-0.20691
-0.20142
-0.19287
-0.18311
-0.17303
-0.16296
-0.15564
-0.15076
-0.14526
-0.14465
-0.14496
-0.14496
-0.14526
-0.14282
-0.14069
-0.14008
-0.13733
-0.13458
-0.13062
-0.12817
-0.12512
-0.12299
-0.12115
-0.12054
-0.11658
-0.11597
-0.11566
-0.11627
-0.11230
-0.11078
-0.10864
-0.10437
-0.09888
-0.09186
-0.08484
-0.07965
-0.07263
-0.06805
-0.06287
-0.05829
-0.05310
-0.05249
-0.05249
-0.05310
-0.05219
-0.05768
-0.05768
-0.05737
-0.05768
-0.05737
-0.05341
-0.04761
-0.04150
-0.03326
-0.02563
-0.01923
-0.01343
-0.00916
-0.00854
-0.00885
-0.01221
-0.02014
-0.02991
-0.04333
-0.05829
-0.07324
-0.09033
-0.10284
-0.11810
-0.12665
-0.13519
-0.13977
-0.14465
-0.14557
-0.14954
-0.14740
-0.14557
-0.14252
-0.13763
-0.13275
-0.12878
-0.12115
-0.11444
-0.10834
-0.10193
-0.09735
-0.09674
-0.09186
-0.09125
-0.09186
-0.09125
-0.09094
-0.08698
-0.08698
-0.08301
-0.08209
-0.07751
-0.07721
-0.07690
-0.07690
-0.07690
-0.07660
-0.07629
-0.07660
-0.07660
-0.07263
-0.07019
-0.06744
-0.06317
-0.06012
-0.05524
-0.05188
-0.04883
-0.04852
-0.04669
-0.05157
-0.05890
-0.06439
-0.07172
-0.07568
-0.07721
-0.07721
-0.07172
-0.06561
-0.05432
-0.03876
-0.02045
-0.00275
0.01190
0.01831
0.02106
0.01434
0.00214
-0.01251
-0.03387
-0.05615
-0.07965
-0.09766
-0.11169
-0.12024
-0.12482
-0.12451
-0.12329
-0.12085
-0.11597
-0.11200
-0.10590
-0.10437
-0.09979
-0.09583
-0.09186
-0.09155
-0.09064
-0.09125
-0.09186
-0.09094
-0.09155
-0.08728
-0.08636
-0.08698
-0.08728
-0.08270
-0.08179
-0.08575
-0.08636
-0.08636
-0.08636
-0.08698
-0.09094
-0.08942
-0.08636
-0.08667
-0.08423
-0.08209
-0.07721
-0.07263
-0.06714
-0.06073
-0.05096
-0.04608
-0.03632
-0.02625
-0.01678
-0.00671
0.00305
0.00610
0.00610
0.00580
0.00183
-0.00336
-0.01007
-0.01740
-0.02472
-0.03418
-0.04059
-0.04730
-0.04974
-0.05249
-0.05219
-0.05249
-0.05219
-0.05005
-0.04791
-0.04547
-0.04272
-0.04028
-0.03754
-0.03540
-0.03326
-0.03326
-0.03296
-0.03326
-0.03571
-0.03723
-0.03571
-0.03326
-0.03021
-0.02869
-0.02533
-0.02319
-0.02777
-0.03021
-0.03296
-0.03784
-0.04211
-0.04517
-0.04791
-0.04852
-0.04395
-0.04028
-0.03571
-0.03082
-0.02594
-0.02045
-0.01770
-0.01740
-0.01831
-0.01740
-0.02014
-0.02258
-0.02075
-0.01801
-0.01587
-0.01343
-0.00885
-0.00244
0.00305
0.01038
0.01740
0.02777
0.03693
0.04211
0.04974
0.05402
0.05707
0.05920
0.06470
0.06866
0.07416
0.08026
0.08972
0.09949
0.11322
0.12634
0.13855
0.15198
0.16266
0.17212
0.18280
0.19196
0.19836
0.20020
0.19806
0.19318
0.18402
0.17365
0.16449
0.15472
0.14130
0.13428
0.12817
0.12238
0.11841
0.11780
0.11932
0.12268
0.12695
0.13184
0.13245
0.13428
0.13245
0.13153
0.12787
0.12512
0.12024
0.11261
0.10590
0.09827
0.09308
0.08911
0.08636
0.08362
0.08026
0.07996
0.07904
0.07660
0.07263
0.06256
0.05310
0.04395
0.02960
0.01526
0.00061
-0.01312
-0.02502
-0.03815
-0.04883
-0.05951
-0.06927
-0.07904
-0.08484
-0.09125
-0.09491
-0.09888
-0.10132
-0.10162
-0.10132
-0.10132
-0.09857
-0.09705
-0.09613
-0.09674
-0.09644
-0.09644
-0.10101
-0.10193
-0.10590
-0.11108
-0.11078
-0.11505
-0.11566
-0.11627
-0.12054
-0.12054
-0.12482
-0.12817
-0.13062
-0.13306
-0.13550
-0.13519
-0.13550
-0.13550
-0.13519
-0.13306
-0.13000
-0.12543
-0.12115
-0.11841
-0.11627
-0.11627
-0.11322
-0.11047
-0.11047
-0.11108
-0.11139
-0.11078
-0.11108
-0.11078
-0.11078
-0.11078
-0.10925
-0.10406
-0.09888
-0.08972
-0.08423
-0.07751
-0.07050
-0.06470
-0.05371
-0.03876
-0.01953
0.00153
0.03082
0.05981
0.09003
0.12421
0.16327
0.20416
0.24750
0.30029
0.35614
0.42145
0.49225
0.57159
0.65735
0.74799
0.84137
0.94116
1.04370
1.15082
1.26038
1.37329
1.48499
1.59943
1.70776
1.81580
1.91406
1.99951
2.07367
2.12769
2.16064
2.16766
2.15240
2.11731
2.06299
1.98700
1.89270
1.78497
1.65833
1.51825
1.36597
1.20331
1.03058
0.85236
0.66742
0.48584
0.30762
0.13397
-0.02899
-0.18555
-0.32928
-0.46112
-0.57617
-0.68359
-0.77301
-0.84930
-0.91614
-0.96924
-1.01318
-1.04492
-1.07056
-1.08490
-1.09192
-1.08856
-1.08093
-1.06689
-1.04950
-1.02844
-1.00403
-0.97900
-0.95123
-0.92621
-0.89722
-0.87219
-0.84320
-0.81757
-0.78949
-0.76263
-0.73578
-0.70679
-0.67749
-0.64789
-0.61859
-0.59113
-0.56549
-0.54291
-0.51880
-0.49591
-0.47424
-0.45410
-0.43518
-0.41504
-0.39642
-0.38086
-0.36560
-0.35095
-0.33844
-0.32867
-0.32349
-0.32074
-0.32074
-0.32135
-0.32318
-0.32776
-0.33295
-0.33569
-0.33539
-0.33569
-0.33478
-0.33112
-0.32440
-0.31860
-0.30914
-0.29877
-0.28992
-0.28046
-0.26550
-0.25146
-0.23712
-0.22247
-0.20752
-0.19348
-0.18311
-0.17273
-0.16327
-0.15778
-0.15076
-0.14587
-0.14099
-0.14069
-0.14038
-0.13977
-0.13947
-0.14038
-0.14038
-0.14008
-0.13580
-0.13550
-0.13580
-0.13123
-0.12848
-0.12543
-0.12360
-0.12115
-0.11658
-0.10895
-0.10468
-0.09430
-0.08728
-0.07996
-0.07080
-0.06500
-0.05829
-0.05341
-0.04791
-0.04761
-0.04364
-0.04272
-0.03815
-0.03723
-0.03357
-0.03143
-0.02594
-0.02106
-0.01801
-0.01343
-0.00977
-0.00885
-0.00427
0.00122
0.00153
0.00580
0.00854
0.01099
0.01526
0.02289
0.02960
0.04181
0.05188
0.06165
0.07538
0.08820
0.10559
0.12360
0.13611
0.14343
0.15106
0.15137
0.14740
0.14252
0.13550
0.12573
0.12024
0.11353
0.11230
0.11169
0.11444
0.11932
0.12451
0.12939
0.13428
0.13947
0.14343
0.14679
0.15045
0.15594
0.16022
0.16541
0.17303
0.17853
0.18768
0.19714
0.20935
0.22369
0.23529
0.24994
0.26031
0.26978
0.27740
0.28320
0.28290
0.28381
0.28320
0.28351
0.28351
0.28290
0.28717
0.29083
0.29541
0.30029
0.30304
0.30670
0.30762
0.30731
0.30792
0.30731
0.30762
0.30731
0.30487
0.30304
0.30365
0.30518
0.30792
0.30762
0.30792
0.31189
0.31250
0.31219
0.31281
0.31281
0.30792
0.30762
0.30762
0.30792
0.30884
0.30762
0.30731
0.31250
0.31250
0.31006
0.30762
0.30334
0.29602
0.28687
0.27710
0.26672
0.26123
0.25665
0.25177
0.24872
0.24933
0.24475
0.24200
0.23743
0.22766
0.21851
0.20203
0.18738
0.16815
0.14832
0.12817
0.10925
0.08911
0.07416
0.05890
0.04486
0.02930
0.01953
0.00946
0.00031
-0.00946
-0.02014
-0.02899
-0.03906
-0.05096
-0.06378
-0.07965
-0.09521
-0.11444
-0.13123
-0.14923
-0.16388
-0.17548
-0.18555
-0.19470
-0.20508
-0.21088
-0.21606
-0.22064
-0.22522
-0.22766
-0.23285
-0.23529
-0.23773
-0.24231
-0.24506
-0.24963
-0.25452
-0.25940
-0.26306
-0.27069
-0.27618
-0.27710
-0.28137
-0.28137
-0.28168
-0.28168
-0.28198
-0.27893
-0.27710
-0.27649
-0.27496
-0.27191
-0.26825
-0.26062
-0.25330
-0.24658
-0.24292
-0.23834
-0.23804
-0.23987
-0.24292
-0.24689
-0.25360
-0.25940
-0.26764
-0.27496
-0.28076
-0.28564
-0.28900
-0.29083
-0.28748
-0.28656
-0.28015
-0.27466
-0.26550
-0.25574
-0.24658
-0.23712
-0.22888
-0.22156
-0.21210
-0.20294
-0.19257
-0.18250
-0.17212
-0.16571
-0.15869
-0.15289
-0.14740
-0.14282
-0.13611
-0.13092
-0.13031
-0.13092
-0.13275
-0.13763
-0.14221
-0.14984
-0.15594
-0.16235
-0.16815
-0.17365
-0.17853
-0.18219
-0.18616
-0.18890
-0.18921
-0.18860
-0.18890
-0.18494
-0.17944
-0.17242
-0.16724
-0.16083
-0.15259
-0.14587
-0.14038
-0.13641
-0.13092
-0.12604
-0.12085
-0.11841
-0.11383
-0.10864
-0.10406
-0.09552
-0.08514
-0.08026
-0.07019
-0.06531
-0.05768
-0.05737
-0.05249
-0.05280
-0.05249
-0.05646
-0.05951
-0.06378
-0.06897
-0.07202
-0.07233
-0.06744
-0.06500
-0.05798
-0.05341
-0.04822
-0.04333
-0.03815
-0.03632
-0.03265
-0.02930
-0.02350
-0.01648
-0.01343
-0.00946
-0.01282
-0.01770
-0.02441
-0.03448
-0.04211
-0.04974
-0.05676
-0.06165
-0.06256
-0.06226
-0.06195
-0.05798
-0.05493
-0.05066
-0.04761
-0.04578
-0.04333
-0.04272
-0.04272
-0.04700
-0.05005
-0.05524
-0.05981
-0.06226
-0.06653
-0.06714
-0.07111
-0.07172
-0.07233
-0.07202
-0.07202
-0.06775
-0.06744
-0.06744
-0.06317
-0.06042
-0.05768
-0.05280
-0.05280
-0.05066
-0.04730
-0.04791
-0.04761
-0.04761
-0.04364
-0.04272
-0.04272
-0.04272
-0.04303
-0.04303
-0.04517
-0.04761
-0.04761
-0.04822
-0.04791
-0.04944
-0.05249
-0.05432
-0.05707
-0.05707
-0.05524
-0.05249
-0.04852
-0.04333
-0.04089
-0.03815
-0.03815
-0.04028
-0.04303
-0.04547
-0.04791
-0.05219
-0.05280
-0.05310
-0.05096
-0.04517
-0.04059
-0.03296
-0.02869
-0.02380
-0.01862
-0.01343
-0.00702
-0.00183
0.00305
0.00854
0.01343
0.01617
0.01587
0.01221
0.00702
0.00153
-0.00336
-0.00793
-0.00793
-0.00885
-0.00824
-0.00824
-0.01099
-0.01312
-0.01709
-0.02258
-0.02472
-0.03052
-0.03326
-0.03479
-0.03540
-0.03265
-0.03326
-0.03265
-0.03082
-0.02838
-0.02838
-0.02625
-0.02350
-0.02075
-0.01648
-0.01099
-0.00458
0.00336
0.01526
0.02686
0.04089
0.05768
0.07355
0.08850
0.10345
0.11414
0.12146
0.12207
0.11993
0.11475
0.10590
0.09613
0.09033
0.08362
0.07996
0.07965
0.07874
0.08118
0.08514
0.09033
0.09918
0.10803
0.11871
0.13092
0.14343
0.15747
0.16754
0.17761
0.18555
0.19196
0.19531
0.20020
0.20294
0.20538
0.20538
0.20447
0.20599
0.20081
0.20050
0.20050
0.20111
0.19653
0.19562
0.19196
0.18402
0.17395
0.16510
0.15503
0.14465
0.13519
0.12543
0.11566
0.11017
0.10742
0.10742
0.10742
0.10925
0.11475
0.11749
0.12146
0.12024
0.11536
0.10590
0.09644
0.08057
0.06592
0.04700
0.03021
0.01251
-0.00275
-0.01526
-0.02625
-0.03967
-0.04730
-0.05463
-0.06195
-0.06653
-0.07172
-0.07385
-0.07751
-0.07690
-0.07721
-0.07690
-0.07263
-0.07202
-0.07202
-0.07202
-0.07202
-0.07202
-0.07172
-0.07202
-0.07202
-0.06805
-0.06714
-0.06256
-0.06256
-0.06256
-0.06714
-0.06927
-0.07233
-0.07599
-0.08362
-0.08850
-0.09094
-0.09583
-0.09613
-0.09644
-0.09705
-0.09308
-0.09155
-0.08759
-0.08392
-0.07782
-0.07019
-0.06073
-0.05096
-0.04120
-0.03174
-0.02594
-0.02350
-0.02106
-0.02014
-0.02319
-0.02533
-0.02960
-0.03296
-0.03723
-0.03815
-0.03357
-0.02625
-0.01709
-0.00122
0.01923
0.04059
0.07050
0.09705
0.12695
0.15564
0.18951
0.22583
0.27039
0.32043
0.37720
0.44067
0.51300
0.58990
0.67291
0.75989
0.84839
0.93842
1.03546
1.13556
1.23779
1.34918
1.45935
1.57349
1.68091
1.78711
1.88324
1.96930
2.04376
2.10144
2.14447
2.16888
2.17133
2.14844
2.10693
2.04712
1.96838
1.86829
1.74866
1.60858
1.44958
1.27808
1.09467
0.90759
0.71686
0.52887
0.34973
0.17639
0.01678
-0.13489
-0.27679
-0.40649
-0.52429
-0.63324
-0.72510
-0.81085
-0.88287
-0.94360
-0.99243
-1.02875
-1.05560
-1.06689
-1.06812
-1.05957
-1.04065
-1.01868
-0.98999
-0.95978
-0.92468
-0.88837
-0.85419
-0.81940
-0.79071
-0.76263
-0.73853
-0.71869
-0.69458
-0.67688
-0.65948
-0.64026
-0.61646
-0.59418
-0.56824
-0.54352
-0.52338
-0.49957
-0.48157
-0.46448
-0.44708
-0.43274
-0.41748
-0.40314
-0.39062
-0.37811
-0.36865
-0.36133
-0.35583
-0.35095
-0.34637
-0.34088
-0.33630
-0.32867
-0.32410
-0.31464
-0.30914
-0.29968
-0.28992
-0.28076
-0.27008
-0.26093
-0.24689
-0.23712
-0.22675
-0.21667
-0.20782
-0.19989
-0.19470
-0.18951
-0.18707
-0.18433
-0.18402
-0.18372
-0.18402
-0.17975
-0.17700
-0.17273
-0.16815
-0.16266
-0.15533
-0.14862
-0.14313
-0.13824
-0.12848
-0.11963
-0.10590
-0.09125
-0.07568
-0.06409
-0.05127
-0.03662
-0.03082
-0.02167
-0.01556
-0.01343
-0.01282
-0.01587
-0.01984
-0.02472
-0.03479
-0.03998
-0.04486
-0.05157
-0.05707
-0.06165
-0.06683
-0.06775
-0.06653
-0.06287
-0.05798
-0.05127
-0.04120
-0.03113
-0.02167
-0.01221
-0.00214
0.00824
0.01740
0.02777
0.03296
0.03723
0.03998
0.03967
0.03998
0.04059
0.04059
0.04028
0.04028
0.03998
0.04059
0.04028
0.03967
0.03998
0.03967
0.04120
0.04028
0.04059
0.06195
0.09369
0.10406
0.11383
0.12360
0.13336
0.14343
0.15289
0.16296
0.16998
0.17822
0.18250
0.18524
0.18768
0.19012
0.19501
0.19806
0.20477
0.21179
0.22064
0.23102
0.24475
0.25513
0.26489
0.27039
0.27710
0.27832
0.28259
0.28290
0.28320
0.28290
0.28320
0.28748
0.29175
0.29541
0.29999
0.30273
0.30640
0.31433
0.31891
0.32379
0.32898
0.33142
0.33386
0.33722
0.33997
0.34424
0.34698
0.34637
0.34424
0.33936
0.33539
0.33020
0.32745
0.32288
0.31799
0.31311
0.30975
0.30701
0.30823
0.30762
0.30548
0.30273
0.30273
0.29907
0.29816
0.29602
0.29388
0.29297
0.29144
0.28809
0.28412
0.27679
0.27191
0.26154
0.25330
0.24292
0.23041
0.21851
0.20203
0.18707
0.17242
0.15991
0.14679
0.13550
0.12207
0.11047
0.10132
0.09186
0.07904
0.06622
0.05341
0.03937
0.02686
0.01282
-0.00214
-0.01831
-0.03357
-0.04639
-0.05859
-0.06897
-0.07843
-0.08728
-0.09857
-0.10284
-0.11169
-0.12451
-0.13641
-0.14893
-0.16296
-0.17578
-0.18768
-0.19989
-0.21057
-0.22003
-0.22705
-0.23438
-0.23865
-0.23804
-0.23804
-0.23865
-0.23834
-0.23804
-0.24292
-0.24506
-0.25055
-0.25482
-0.26367
-0.27374
-0.28290
-0.29724
-0.30792
-0.32135
-0.33203
-0.34149
-0.34973
-0.35461
-0.35919
-0.36011
-0.36041
-0.35675
-0.35126
-0.34637
-0.34180
-0.33661
-0.33112
-0.33112
-0.33112
-0.33142
-0.32867
-0.32532
-0.32562
-0.32166
-0.31921
-0.31433
-0.30701
-0.29724
-0.28595
-0.27527
-0.26825
-0.26276
-0.26215
-0.26184
-0.26581
-0.26917
-0.27222
-0.27191
-0.27191
-0.26825
-0.26276
-0.25574
-0.25024
-0.24384
-0.23865
-0.23315
-0.23315
-0.23071
-0.22858
-0.22766
-0.22369
-0.22095
-0.21881
-0.21393
-0.20813
-0.20233
-0.19257
-0.18707
-0.17761
-0.17059
-0.16327
-0.15991
-0.15808
-0.15442
-0.15442
-0.15503
-0.15503
-0.15045
-0.14893
-0.14496
-0.14343
-0.13977
-0.13580
-0.13336
-0.13031
-0.13031
-0.13062
-0.13031
-0.13092
-0.13000
-0.12573
-0.11902
-0.10956
-0.09979
-0.08942
-0.08209
-0.07568
-0.06989
-0.06744
-0.06256
-0.06500
-0.06683
-0.07172
-0.07568
-0.08362
-0.08911
-0.09338
-0.10101
-0.10590
-0.10986
-0.11597
-0.11597
-0.11475
-0.11108
-0.10651
-0.10193
-0.09644
-0.09033
-0.08453
-0.07538
-0.06989
-0.06104
-0.05554
-0.05280
-0.05066
-0.04791
-0.04700
-0.04333
-0.04028
-0.03693
-0.03754
-0.03723
-0.03815
-0.03998
-0.04242
-0.04303
-0.04211
-0.04059
-0.03784
-0.03326
-0.02869
-0.02777
-0.02625
-0.02808
-0.03235
-0.03967
-0.04883
-0.05463
-0.06378
-0.07080
-0.07782
-0.08392
-0.08881
-0.09155
-0.09186
-0.08759
-0.08453
-0.07782
-0.07019
-0.06134
-0.05188
-0.04089
-0.03326
-0.02899
-0.02350
-0.02472
-0.03021
-0.03906
-0.04913
-0.05920
-0.06775
-0.07812
-0.08759
-0.09552
-0.10254
-0.10590
-0.10986
-0.11108
-0.11169
-0.10742
-0.10376
-0.10162
-0.09705
-0.09247
-0.08667
-0.08209
-0.07721
-0.07507
-0.06958
-0.06531
-0.05829
-0.05127
-0.04364
-0.03632
-0.02899
-0.02411
-0.01831
-0.01373
-0.01312
-0.00916
-0.00946
-0.00488
-0.00183
0.00305
0.00854
0.01068
0.01129
0.00732
-0.00061
-0.01038
-0.01801
-0.02441
-0.03265
-0.03479
-0.03723
-0.03540
-0.03296
-0.03296
-0.02869
-0.02350
-0.01892
-0.01373
-0.00641
0.00305
0.01251
0.02258
0.03601
0.04669
0.05615
0.06104
0.07050
0.08087
0.09308
0.10651
0.11841
0.12848
0.13794
0.14648
0.15015
0.15137
0.15167
0.14893
0.14618
0.14343
0.13763
0.13245
0.12970
0.12665
0.12756
0.12299
0.12238
0.12054
0.11810
0.11322
0.10986
0.10559
0.09796
0.09125
0.08118
0.07263
0.05890
0.04639
0.03204
0.01892
0.00519
-0.00427
-0.01556
-0.02441
-0.03143
-0.03479
-0.03815
-0.03784
-0.03784
-0.03845
-0.03296
-0.03265
-0.03082
-0.02808
-0.03174
-0.03296
-0.03876
-0.04974
-0.05859
-0.06836
-0.07812
-0.09216
-0.10712
-0.12329
-0.13885
-0.15778
-0.17303
-0.18738
-0.20050
-0.20599
-0.20905
-0.20844
-0.20447
-0.19928
-0.19440
-0.18829
-0.18250
-0.17334
-0.16754
-0.15930
-0.15320
-0.14984
-0.15015
-0.15015
-0.14557
-0.14496
-0.14709
-0.14984
-0.15198
-0.15778
-0.16205
-0.17090
-0.17609
-0.18524
-0.19531
-0.19958
-0.20325
-0.19989
-0.19745
-0.19196
-0.18494
-0.17731
-0.17242
-0.16510
-0.15839
-0.15289
-0.14557
-0.14038
-0.13611
-0.13489
-0.13092
-0.13031
-0.12878
-0.12604
-0.12115
-0.11658
-0.10956
-0.09979
-0.09033
-0.07477
-0.05524
-0.02930
0.00092
0.03357
0.07141
0.11932
0.16815
0.22491
0.28870
0.35400
0.42419
0.49896
0.57739
0.66132
0.74982
0.83923
0.93628
1.04065
1.14746
1.25458
1.36719
1.47461
1.58234
1.68091
1.77216
1.84937
1.91650
1.97388
2.01691
2.04376
2.05505
2.04803
2.01996
1.97388
1.90979
1.83075
1.73218
1.61774
1.48499
1.33606
1.17401
1.00372
0.82611
0.64819
0.46967
0.29358
0.12207
-0.04150
-0.20020
-0.34790
-0.48340
-0.60913
-0.71930
-0.81512
-0.89783
-0.96802
-1.02112
-1.06323
-1.09070
-1.10718
-1.11206
-1.10565
-1.09619
-1.08002
-1.05438
-1.02448
-0.99609
-0.96222
-0.92560
-0.89050
-0.85266
-0.81757
-0.78400
-0.75134
-0.72479
-0.69977
-0.67780
-0.65521
-0.63568
-0.61584
-0.59235
-0.57007
-0.54810
-0.52399
-0.50354
-0.48401
-0.46692
-0.45624
-0.44617
-0.44098
-0.43762
-0.43793
-0.43762
-0.43793
-0.43762
-0.43762
-0.43365
-0.43121
-0.42664
-0.41718
-0.41199
-0.40192
-0.39276
-0.38361
-0.37323
-0.36438
-0.35583
-0.34882
-0.33966
-0.32898
-0.31952
-0.30975
-0.29999
-0.29419
-0.28534
-0.27740
-0.27100
-0.26154
-0.25146
-0.24139
-0.23376
-0.22675
-0.21912
-0.21271
-0.20844
-0.20447
-0.20599
-0.21088
-0.21576
-0.22461
-0.23407
-0.24017
-0.24658
-0.25208
-0.24811
-0.24384
-0.23651
-0.22766
-0.21729
-0.20355
-0.19287
-0.18280
-0.17334
-0.16388
-0.15778
-0.14923
-0.14130
-0.13702
-0.13153
-0.13092
-0.12634
-0.12543
-0.12543
-0.12329
-0.11841
-0.11353
-0.10498
-0.09979
-0.09033
-0.08148
-0.07019
-0.06134
-0.04883
-0.03662
-0.02594
-0.01740
-0.00641
-0.00153
0.00336
0.00580
0.01038
0.01343
0.01801
0.02045
0.02472
0.02563
0.02533
0.02594
0.02625
0.02777
0.03021
0.03448
0.03510
0.03998
0.04089
0.04028
0.04456
0.04761
0.05249
0.06104
0.06836
0.07568
0.08301
0.08942
0.09460
0.09949
0.10498
0.10742
0.10956
0.11200
0.11658
0.12360
0.12939
0.13824
0.14771
0.15747
0.17151
0.18250
0.19623
0.20660
0.21393
0.22156
0.22614
0.23102
0.23376
0.23895
0.24139
0.24353
0.24780
0.25116
0.25421
0.25391
0.25421
0.25818
0.25909
0.26093
0.26306
0.26367
0.26764
0.27069
0.27557
0.28046
0.28564
0.29236
0.29938
0.30518
0.30792
0.30823
0.30579
0.30060
0.29205
0.28046
0.26703
0.25299
0.24261
0.23499
0.23041
0.22583
0.22400
0.22888
0.23163
0.23621
0.23956
0.24292
0.24628
0.24902
0.24902
0.24933
0.24658
0.24048
0.23346
0.22339
0.20935
0.19440
0.18219
0.16998
0.15533
0.14954
0.14282
0.14191
0.13947
0.13733
0.13275
0.12543
0.11627
0.10010
0.08057
0.06042
0.03754
0.01465
-0.00610
-0.02594
-0.04089
-0.05432
-0.06317
-0.07446
-0.08331
-0.09064
-0.09796
-0.10345
-0.10803
-0.11078
-0.11475
-0.11658
-0.11780
-0.12299
-0.13153
-0.14343
-0.15656
-0.16998
-0.18463
-0.19714
-0.21210
-0.23071
-0.24597
-0.26520
-0.28473
-0.30182
-0.31677
-0.32684
-0.33691
-0.34393
-0.34943
-0.35461
-0.35950
-0.36499
-0.36865
-0.37476
-0.37506
-0.37506
-0.37079
-0.36774
-0.36469
-0.36072
-0.35767
-0.35522
-0.35126
-0.35095
-0.34821
-0.34943
-0.35217
-0.35522
-0.36011
-0.36041
-0.36041
-0.36011
-0.35980
-0.35828
-0.35370
-0.34668
-0.33905
-0.32990
-0.31586
-0.30518
-0.29724
-0.29083
-0.28442
-0.28168
-0.28564
-0.29053
-0.29785
-0.30548
-0.31006
-0.31525
-0.31616
-0.31372
-0.30914
-0.30457
-0.29785
-0.29053
-0.28046
-0.27100
-0.26123
-0.25635
-0.24902
-0.24414
-0.23834
-0.23346
-0.22888
-0.22430
-0.21790
-0.21240
-0.20721
-0.20172
-0.19684
-0.19409
-0.19653
-0.20142
-0.20630
-0.20996
-0.21606
-0.21851
-0.21881
-0.22278
-0.22614
-0.22797
-0.23193
-0.23468
-0.23743
-0.23773
-0.23804
-0.23773
-0.23346
-0.22827
-0.22217
-0.21210
-0.20264
-0.18890
-0.17395
-0.16296
-0.15320
-0.14984
-0.14984
-0.14954
-0.14984
-0.15106
-0.15717
-0.15869
-0.16449
-0.16510
-0.16296
-0.15808
-0.15320
-0.14587
-0.14130
-0.13641
-0.13092
-0.13000
-0.13062
-0.13031
-0.12970
-0.12970
-0.13275
-0.13702
-0.14252
-0.14740
-0.14923
-0.15411
-0.15259
-0.14801
-0.14343
-0.13367
-0.12054
-0.10956
-0.09979
-0.09247
-0.08514
-0.08026
-0.07507
-0.06989
-0.06531
-0.06165
-0.06226
-0.06836
-0.07416
-0.08514
-0.09705
-0.11139
-0.12451
-0.13672
-0.14679
-0.15625
-0.16266
-0.16449
-0.16510
-0.16418
-0.16022
-0.15533
-0.14893
-0.13916
-0.12695
-0.11841
-0.10986
-0.10437
-0.10193
-0.09705
-0.09613
-0.10071
-0.10315
-0.10834
-0.11292
-0.12238
-0.12756
-0.13580
-0.14252
-0.14557
-0.14526
-0.14496
-0.14099
-0.13367
-0.12421
-0.11444
-0.10559
-0.09064
-0.08026
-0.07568
-0.06775
-0.06744
-0.06958
-0.07385
-0.08484
-0.09918
-0.11261
-0.12634
-0.13428
-0.13947
-0.14069
-0.14008
-0.13794
-0.13336
-0.12665
-0.11963
-0.11383
-0.10895
-0.10651
-0.10559
-0.10590
-0.10803
-0.11078
-0.11078
-0.10925
-0.10376
-0.09949
-0.09033
-0.08026
-0.06866
-0.05493
-0.03937
-0.02716
-0.01709
-0.00885
-0.00793
-0.00854
-0.01221
-0.01587
-0.02014
-0.02289
-0.02747
-0.03204
-0.03510
-0.03967
-0.04669
-0.05371
-0.06439
-0.06958
-0.06989
-0.06470
-0.05615
-0.04730
-0.03693
-0.02289
-0.01617
-0.00946
-0.00671
-0.00305
-0.00153
0.00305
0.00793
0.01923
0.03357
0.04852
0.06470
0.07935
0.08942
0.09674
0.09949
0.10223
0.10284
0.10498
0.10742
0.10925
0.11505
0.11749
0.11780
0.11749
0.11719
0.11780
0.11749
0.11688
0.12146
0.12207
0.12207
0.12238
0.12299
0.11597
0.11047
0.10101
0.08972
0.07629
0.06378
0.05371
0.04639
0.04059
0.04028
0.03998
0.04059
0.04089
0.03418
0.02502
0.01221
-0.00183
-0.01648
-0.03082
-0.04456
-0.05829
-0.07233
-0.08301
-0.09186
-0.10223
-0.10986
-0.11078
-0.11536
-0.11597
-0.11536
-0.11780
-0.12085
-0.12146
-0.12024
-0.12054
-0.12085
-0.12238
-0.12482
-0.12482
-0.12573
-0.12451
-0.12543
-0.12604
-0.12482
-0.12482
-0.12512
-0.12543
-0.12604
-0.12573
-0.13000
-0.13275
-0.13580
-0.13489
-0.13977
-0.14038
-0.14069
-0.14008
-0.14008
-0.14038
-0.14252
-0.14893
-0.15656
-0.16724
-0.18036
-0.19043
-0.20020
-0.20569
-0.21210
-0.22034
-0.22308
-0.22736
-0.22797
-0.22827
-0.22430
-0.22186
-0.21698
-0.20966
-0.20233
-0.19470
-0.18829
-0.17792
-0.17029
-0.16418
-0.15808
-0.14893
-0.14313
-0.13336
-0.12299
-0.10986
-0.09583
-0.08575
-0.07599
-0.06561
-0.05585
-0.04242
-0.02563
0.00031
0.02899
0.06531
0.10468
0.14893
0.20081
0.25665
0.31647
0.38422
0.45502
0.53375
0.61768
0.70831
0.80292
0.90057
1.00098
1.10260
1.20941
1.31256
1.41357
1.50787
1.59821
1.67786
1.74683
1.81122
1.86859
1.91986
1.96289
1.99982
2.02362
2.03094
2.02240
1.99738
1.95007
1.88019
1.78833
1.67114
1.52832
1.36078
1.17279
0.96985
0.75745
0.54016
0.32990
0.12360
-0.06927
-0.25208
-0.41565
-0.56091
-0.68634
-0.79407
-0.87982
-0.94543
-0.99426
-1.02753
-1.04889
-1.05927
-1.06293
-1.05713
-1.04492
-1.03119
-1.01135
-0.99304
-0.96893
-0.94208
-0.91156
-0.87891
-0.84747
-0.81360
-0.77484
-0.73608
-0.69702
-0.65979
-0.62622
-0.59540
-0.56885
-0.54382
-0.52551
-0.51086
-0.49622
-0.48615
-0.47577
-0.46631
-0.46082
-0.45776
-0.45563
-0.45410
-0.45746
-0.45746
-0.45776
-0.45563
-0.44586
-0.43701
-0.42480
-0.41260
-0.40314
-0.39124
-0.37872
-0.37048
-0.36377
-0.35858
-0.35309
-0.35034
-0.34515
-0.34393
-0.33905
-0.33539
-0.33112
-0.32959
-0.32684
-0.32990
-0.33081
-0.33386
-0.33905
-0.34485
-0.34607
-0.34332
-0.33844
-0.32928
-0.32013
-0.30609
-0.29114
-0.27435
-0.25513
-0.23621
-0.21820
-0.20721
-0.19958
-0.19440
-0.19623
-0.19897
-0.20325
-0.20813
-0.20905
-0.20844
-0.20874
-0.20508
-0.19775
-0.19196
-0.18341
-0.16876
-0.15839
-0.14923
-0.13855
-0.12909
-0.12024
-0.11444
-0.11139
-0.10681
-0.10651
-0.10590
-0.10223
-0.09918
-0.09644
-0.09186
-0.08972
-0.08209
-0.07568
-0.06470
-0.05188
-0.03967
-0.02441
-0.01099
0.00275
0.01251
0.02167
0.02716
0.03052
0.03082
0.03021
0.03052
0.03113
0.03113
0.03235
0.03540
0.03967
0.04059
0.03632
0.03326
0.02625
0.02167
0.01892
0.01648
0.01984
0.02258
0.02563
0.02991
0.03052
0.03265
0.03632
0.03479
0.03693
0.03998
0.04028
0.04395
0.04730
0.05249
0.05676
0.06531
0.07507
0.08606
0.09857
0.11322
0.12543
0.13977
0.15289
0.16663
0.17853
0.19226
0.20538
0.21759
0.23041
0.24109
0.25055
0.25604
0.25818
0.25482
0.24994
0.24261
0.23285
0.22369
0.21576
0.21118
0.20996
0.21149
0.21729
0.22583
0.23590
0.24567
0.25848
0.27008
0.27924
0.28961
0.29968
0.30884
0.31860
0.32471
0.32532
0.32043
0.31494
0.30640
0.29694
0.28717
0.27740
0.26733
0.26398
0.26001
0.25635
0.25604
0.25848
0.26093
0.26306
0.26733
0.26886
0.27222
0.27313
0.27405
0.27344
0.27374
0.27740
0.27832
0.27618
0.27191
0.26245
0.25238
0.24323
0.23315
0.22369
0.21759
0.21301
0.20813
0.19989
0.18921
0.17944
0.17059
0.15594
0.14099
0.12421
0.10529
0.08575
0.06744
0.04791
0.02808
0.01099
-0.00549
-0.02075
-0.03418
-0.04364
-0.05371
-0.06317
-0.07263
-0.08270
-0.09918
-0.11444
-0.12848
-0.14526
-0.16052
-0.17761
-0.19012
-0.20416
-0.21637
-0.22919
-0.24384
-0.25452
-0.26764
-0.27802
-0.28412
-0.28595
-0.28687
-0.28503
-0.27985
-0.27679
-0.27313
-0.27161
-0.27252
-0.27374
-0.27924
-0.28809
-0.29755
-0.30396
-0.30609
-0.31067
-0.31128
-0.31128
-0.31067
-0.31097
-0.30701
-0.30457
-0.30121
-0.29968
-0.29602
-0.29663
-0.29633
-0.29663
-0.30060
-0.30762
-0.31769
-0.32623
-0.33661
-0.34912
-0.36133
-0.37079
-0.38391
-0.39062
-0.39398
-0.39429
-0.39215
-0.38940
-0.38940
-0.38910
-0.39368
-0.39642
-0.40100
-0.40955
-0.41962
-0.42938
-0.43884
-0.44495
-0.44769
-0.44769
-0.45227
-0.45319
-0.45258
-0.45410
-0.45532
-0.45227
-0.45105
-0.44739
-0.44342
-0.43732
-0.43091
-0.42206
-0.41260
-0.40283
-0.39337
-0.38361
-0.37567
-0.36896
-0.35889
-0.35400
-0.34027
-0.32928
-0.31616
-0.30396
-0.28839
-0.26978
-0.25482
-0.23834
-0.22705
-0.21759
-0.21393
-0.21545
-0.22644
-0.24139
-0.25940
-0.27954
-0.29694
-0.31158
-0.32196
-0.32532
-0.32562
-0.32196
-0.31494
-0.30487
-0.29602
-0.28503
-0.28198
-0.27771
-0.27710
-0.27924
-0.28168
-0.28656
-0.28900
-0.28992
-0.28473
-0.27985
-0.27100
-0.25757
-0.24506
-0.23071
-0.21729
-0.20386
-0.18921
-0.17822
-0.16449
-0.15320
-0.14832
-0.13885
-0.12939
-0.12024
-0.10986
-0.10223
-0.09766
-0.09613
-0.09613
-0.10071
-0.10712
-0.11688
-0.13092
-0.14587
-0.15869
-0.17059
-0.17883
-0.17883
-0.17578
-0.16876
-0.16327
-0.15442
-0.14557
-0.14038
-0.13611
-0.13550
-0.13062
-0.13062
-0.12848
-0.12573
-0.12573
-0.12543
-0.12604
-0.12817
-0.13062
-0.13062
-0.13092
-0.13031
-0.12665
-0.11963
-0.10986
-0.10132
-0.09460
-0.08789
-0.08240
-0.08179
-0.08240
-0.08575
-0.09064
-0.09521
-0.10071
-0.10315
-0.10620
-0.10590
-0.10437
-0.10132
-0.10132
-0.09674
-0.09644
-0.09613
-0.09674
-0.09644
-0.09644
-0.09399
-0.09186
-0.09125
-0.08667
-0.08057
-0.07050
-0.06500
-0.06073
-0.05798
-0.06165
-0.06622
-0.07111
-0.07629
-0.08118
-0.08392
-0.08698
-0.08667
-0.08881
-0.09186
-0.09125
-0.09155
-0.08698
-0.08545
-0.07782
-0.07141
-0.06531
-0.05646
-0.04639
-0.03876
-0.03143
-0.02777
-0.02777
-0.02777
-0.02777
-0.02808
-0.02380
-0.02258
-0.02289
-0.02502
-0.03387
-0.04303
-0.05432
-0.06134
-0.06836
-0.07385
-0.07660
-0.07690
-0.07721
-0.07721
-0.07751
-0.07904
-0.08362
-0.08667
-0.08881
-0.09094
-0.09125
-0.09094
-0.09125
-0.09125
-0.09125
-0.08728
-0.08301
-0.07629
-0.06622
-0.05646
-0.05127
-0.04395
-0.03815
-0.03815
-0.03448
-0.03082
-0.02808
-0.02777
-0.02777
-0.02777
-0.03418
-0.03937
-0.04303
-0.04272
-0.04303
-0.03662
-0.02869
-0.02197
-0.01251
-0.00458
-0.00183
0.00122
0.00122
0.00092
-0.00031
-0.00336
-0.00305
-0.00336
-0.00366
0.00092
0.00610
0.01221
0.02167
0.02960
0.03479
0.03571
0.03967
0.03632
0.03204
0.02411
0.01282
0.00031
-0.01587
-0.03143
-0.04547
-0.05859
-0.06622
-0.07172
-0.06989
-0.06531
-0.05585
-0.04486
-0.03052
-0.01556
-0.00122
0.01160
0.02625
0.03662
0.04700
0.05463
0.06104
0.06897
0.07538
0.07965
0.08942
0.09460
0.10315
0.11353
0.12299
0.13062
0.13031
0.12329
0.11017
0.09125
0.07172
0.05646
0.04028
0.02960
0.02197
0.01678
0.01984
0.02289
0.03052
0.03723
0.04608
0.05157
0.06134
0.07080
0.07935
0.08911
0.09460
0.10468
0.11810
0.12421
0.13092
0.13580
0.13733
0.13672
0.14130
0.14435
0.15289
0.15869
0.16724
0.17731
0.18890
0.20111
0.21118
0.22095
0.22705
0.23376
0.23926
0.24139
0.24445
0.24475
0.24414
0.24017
0.23743
0.23254
0.22522
0.21820
0.21088
0.20599
0.20111
0.19623
0.19104
0.18646
0.17944
0.16968
0.16388
0.15747
0.15228
0.14496
0.14008
0.13123
0.11932
0.10620
0.09644
0.08728
0.07385
0.06378
0.05371
0.04456
0.04028
0.04059
0.03998
0.04028
0.04456
0.04547
0.04730
0.04974
0.05493
0.05737
0.06195
0.06592
0.06866
0.06927
0.06744
0.06073
0.05157
0.03906
0.02350
0.00854
-0.01007
-0.02411
-0.03784
-0.04730
-0.05371
-0.06348
-0.07385
-0.08331
-0.09644
-0.10803
-0.11475
-0.11932
-0.12054
-0.11871
-0.11047
-0.09644
-0.08545
-0.07111
-0.06317
-0.05829
-0.05798
-0.05768
-0.05890
-0.06226
-0.06683
-0.06927
-0.07324
-0.07874
-0.08179
-0.08575
-0.08636
-0.08911
-0.09155
-0.09094
-0.09094
-0.09155
-0.09155
-0.09155
-0.08728
-0.08301
-0.07721
-0.07294
-0.06744
-0.06714
-0.06317
-0.06653
-0.06714
-0.07111
-0.07599
-0.08057
-0.08209
-0.07812
-0.07080
-0.06165
-0.05157
-0.04181
-0.02808
-0.01068
0.00763
0.02869
0.05402
0.08392
0.12115
0.16663
0.21667
0.27649
0.34424
0.42053
0.50720
0.59692
0.68970
0.78247
0.87555
0.97198
1.07178
1.17432
1.28510
1.39313
1.50452
1.60919
1.70563
1.79169
1.86707
1.93054
1.98425
2.02942
2.06329
2.09106
2.10571
2.10693
2.09625
2.06665
2.02118
1.95831
1.87561
1.77429
1.65009
1.51062
1.35437
1.18378
1.00128
0.80994
0.61432
0.41748
0.21942
0.03082
-0.14923
-0.31250
-0.46173
-0.58807
-0.69641
-0.79132
-0.86426
-0.92590
-0.96741
-0.99426
-1.00861
-1.01135
-1.00800
-0.99487
-0.97870
-0.95642
-0.93231
-0.90759
-0.87982
-0.85022
-0.82306
-0.79590
-0.76752
-0.74158
-0.71930
-0.69977
-0.68237
-0.66559
-0.64728
-0.63171
-0.61005
-0.58777
-0.56763
-0.54810
-0.52917
-0.51361
-0.50018
-0.48706
-0.47241
-0.45959
-0.44464
-0.42786
-0.41138
-0.39429
-0.37994
-0.36499
-0.35400
-0.33936
-0.32959
-0.32013
-0.30945
-0.30029
-0.28809
-0.27588
-0.26215
-0.25177
-0.24231
-0.23682
-0.23163
-0.22858
-0.23285
-0.23926
-0.24506
-0.25299
-0.26306
-0.27313
-0.28290
-0.28778
-0.29572
-0.30060
-0.30151
-0.30182
-0.29724
-0.29053
-0.28076
-0.27252
-0.26581
-0.26215
-0.25787
-0.25543
-0.25116
-0.24628
-0.23773
-0.22736
-0.21759
-0.20386
-0.18890
-0.17395
-0.16357
-0.14984
-0.14282
-0.13428
-0.13000
-0.13062
-0.13000
-0.13458
-0.13672
-0.14069
-0.13855
-0.13336
-0.12482
-0.11322
-0.09827
-0.08423
-0.07141
-0.06195
-0.05127
-0.04272
-0.03815
-0.03784
-0.03754
-0.03815
-0.03784
-0.03479
-0.02747
-0.01892
-0.01221
-0.00305
0.00885
0.02136
0.03571
0.04761
0.06195
0.07568
0.08423
0.09003
0.09277
0.09338
0.09277
0.08698
0.07599
0.06165
0.04456
0.03052
0.01953
0.00977
0.00183
-0.00336
-0.00397
-0.00214
0.00244
0.01251
0.02380
0.03693
0.05035
0.06683
0.08087
0.09460
0.10925
0.12238
0.13306
0.14313
0.15015
0.15594
0.16022
0.16174
0.16144
0.16113
0.16174
0.16144
0.16296
0.16754
0.17242
0.18250
0.18768
0.20050
0.21088
0.22125
0.23041
0.23987
0.24933
0.25757
0.26306
0.26733
0.27039
0.27313
0.27405
0.27557
0.27832
0.27863
0.28229
0.28381
0.28320
0.27954
0.27863
0.27435
0.27161
0.26855
0.26855
0.26886
0.27100
0.27557
0.28473
0.29846
0.31494
0.33020
0.34882
0.36652
0.38086
0.39001
0.39551
0.39337
0.38483
0.36957
0.34973
0.32867
0.30396
0.27527
0.25024
0.22797
0.20813
0.19073
0.17609
0.16449
0.15900
0.15442
0.15045
0.14557
0.14221
0.13794
0.13306
0.12573
0.12024
0.11536
0.10803
0.10345
0.10071
0.09827
0.09399
0.09125
0.08636
0.08179
0.07751
0.07233
0.06714
0.06256
0.05798
0.05066
0.04425
0.03418
0.02472
0.01495
0.00488
-0.00610
-0.02045
-0.03571
-0.05463
-0.07538
-0.09857
-0.11780
-0.13794
-0.15259
-0.16541
-0.17578
-0.18921
-0.19836
-0.20508
-0.21454
-0.22247
-0.22888
-0.23926
-0.24902
-0.25848
-0.26367
-0.27130
-0.27618
-0.28137
-0.28229
-0.27710
-0.27313
-0.26611
-0.25787
-0.25146
-0.24200
-0.23193
-0.22644
-0.22369
-0.22339
-0.22705
-0.23651
-0.24811
-0.26337
-0.27954
-0.29785
-0.31189
-0.32623
-0.33447
-0.34149
-0.34607
-0.35004
-0.35004
-0.34851
-0.34546
-0.34119
-0.33600
-0.33173
-0.32928
-0.32623
-0.32166
-0.32135
-0.31860
-0.31433
-0.30945
-0.30029
-0.29053
-0.28046
-0.27130
-0.26489
-0.26062
-0.25787
-0.25360
-0.25665
-0.25757
-0.25879
-0.26367
-0.26703
-0.27100
-0.27222
-0.27557
-0.27649
-0.27679
-0.27710
-0.27557
-0.27191
-0.26733
-0.26154
-0.25574
-0.24658
-0.23804
-0.23193
-0.22644
-0.21973
-0.21454
-0.20905
-0.20721
-0.20233
-0.19440
-0.18768
-0.17822
-0.16418
-0.15320
-0.14008
-0.12909
-0.11902
-0.11261
-0.10651
-0.10620
-0.10834
-0.11047
-0.11566
-0.12024
-0.12512
-0.12512
-0.12573
-0.12146
-0.11627
-0.10956
-0.10437
-0.09552
-0.09033
-0.08209
-0.08209
-0.08179
-0.08392
-0.09033
-0.09583
-0.10010
-0.10529
-0.11017
-0.11444
-0.12024
-0.12451
-0.12573
-0.12543
-0.12360
-0.12085
-0.12054
-0.12085
-0.11871
-0.11993
-0.12024
-0.12024
-0.11871
-0.11597
-0.11383
-0.10712
-0.10010
-0.09094
-0.08514
-0.07751
-0.07263
-0.07141
-0.06805
-0.06714
-0.06714
-0.06927
-0.07111
-0.07202
-0.07233
-0.07202
-0.07202
-0.06836
-0.06287
-0.05646
-0.05127
-0.04425
-0.03876
-0.03357
-0.03296
-0.02899
-0.02838
-0.02441
-0.02319
-0.01953
-0.01617
-0.01160
-0.00671
-0.00397
-0.00336
-0.00763
-0.01221
-0.01923
-0.02899
-0.03418
-0.04333
-0.05310
-0.05890
-0.06866
-0.07751
-0.08392
-0.08606
-0.09125
-0.09155
-0.09155
-0.09155
-0.09155
-0.08728
-0.08270
-0.07782
-0.07263
-0.07080
-0.06775
-0.06256
-0.06226
-0.06226
-0.06256
-0.06256
-0.06226
-0.06165
-0.06226
-0.06439
-0.06683
-0.07080
-0.07385
-0.07660
-0.07690
-0.07660
-0.07324
-0.06744
-0.06317
-0.05798
-0.05341
-0.05219
-0.05341
-0.05951
-0.06378
-0.07141
-0.07843
-0.08392
-0.08911
-0.09277
-0.09888
-0.10132
-0.10315
-0.10590
-0.10193
-0.09949
-0.09491
-0.08575
-0.07172
-0.06165
-0.05157
-0.04181
-0.03204
-0.02747
-0.02380
-0.02289
-0.02533
-0.02808
-0.03204
-0.03693
-0.04364
-0.04913
-0.05646
-0.06287
-0.06927
-0.07385
-0.07874
-0.08179
-0.08362
-0.08270
-0.07965
-0.07507
-0.06805
-0.06195
-0.05585
-0.04852
-0.04364
-0.03845
-0.03632
-0.03357
-0.03510
-0.03723
-0.03754
-0.03906
-0.04303
-0.04272
-0.04272
-0.04272
-0.04272
-0.04456
-0.04608
-0.04395
-0.04272
-0.04272
-0.03845
-0.03357
-0.02716
-0.01740
-0.00549
0.00519
0.01190
0.01831
0.02045
0.02075
0.01495
0.00580
-0.00488
-0.01373
-0.02380
-0.03357
-0.03998
-0.04272
-0.03815
-0.03601
-0.03296
-0.02808
-0.02411
-0.02106
-0.01648
-0.01312
-0.00946
-0.00793
-0.00885
-0.01038
-0.01282
-0.01251
-0.00916
-0.00641
-0.00427
-0.00336
-0.00458
-0.00580
-0.01038
-0.01465
-0.01801
-0.01862
-0.01831
-0.01801
-0.01862
-0.01801
-0.01404
-0.01312
-0.01282
-0.01312
-0.00946
-0.00854
-0.00793
-0.00854
-0.00397
0.00092
0.00519
0.01038
0.01495
0.01801
0.02075
0.02075
0.02045
0.02136
0.02136
0.01678
0.01373
0.00946
0.00580
0.00214
0.00122
0.00153
0.00122
0.00549
0.00580
0.01038
0.01495
0.01801
0.02106
0.02167
0.02075
0.02045
0.02136
0.02106
0.02075
0.01892
0.01587
0.01587
0.01648
0.01617
0.01587
0.01160
0.00641
0.00031
-0.01007
-0.01892
-0.02838
-0.03418
-0.04181
-0.04395
-0.04700
-0.04791
-0.04730
-0.04395
-0.04059
-0.03601
-0.03143
-0.02625
-0.01892
-0.01221
-0.00732
0.00092
0.00671
0.01282
0.01953
0.02472
0.02991
0.03448
0.03906
0.04181
0.04486
0.04639
0.05005
0.05066
0.05035
0.04791
0.04333
0.03815
0.03021
0.02045
0.01007
0.00031
-0.00946
-0.01740
-0.02258
-0.02899
-0.03510
-0.03967
-0.04242
-0.04730
-0.04822
-0.05066
-0.04791
-0.04639
-0.04089
-0.03296
-0.02747
-0.01953
-0.01251
-0.00641
0.00031
0.00549
0.01160
0.01740
0.02533
0.03143
0.03723
0.04059
0.04089
0.04059
0.03571
0.02960
0.02411
0.01678
0.01160
0.00641
0.00244
0.00000
-0.00397
-0.00732
-0.00824
-0.00946
-0.01312
-0.01190
-0.00885
-0.00427
0.00244
0.00763
0.01160
0.01556
0.01770
0.02075
0.02472
0.02747
0.03265
0.03662
0.04028
0.04059
0.04486
0.04486
0.04700
0.05005
0.05188
0.05432
0.05646
0.05981
0.05951
0.05829
0.05280
0.04608
0.03937
0.03021
0.01984
0.01038
0.00061
-0.00671
-0.01221
-0.01709
-0.01770
-0.01862
-0.01770
-0.01587
-0.01160
-0.00458
0.00214
0.00763
0.01312
0.01526
0.02106
0.02472
0.02960
0.03510
0.03998
0.04425
0.04700
0.05005
0.04974
0.05035
0.04639
0.04089
0.03845
0.03387
0.03143
0.03052
0.03052
0.03235
0.03571
0.03967
0.04028
0.04028
0.04028
0.03632
0.03357
0.03082
0.02563
0.02533
0.02777
0.03296
0.04120
0.05249
0.06714
0.08087
0.09186
0.09888
0.10223
0.10254
0.10437
0.10742
0.10712
0.11139
0.11230
0.11658
0.12390
0.12939
0.13763
0.14709
0.15289
0.15656
0.16022
0.16113
0.16113
0.16144
0.16113
0.16174
0.15717
0.15594
0.15656
0.15778
0.16113
0.16510
0.17029
0.17609
0.18250
0.18524
0.18616
0.18188
0.17853
0.17120
0.16541
0.15961
0.15106
0.14038
0.13123
0.12115
0.11169
0.10376
0.09644
0.08881
0.08331
0.07965
0.07568
0.07446
0.07080
0.06927
0.06744
0.06470
0.06470
0.06470
0.06531
0.06653
0.07141
0.07996
0.08484
0.09369
0.10162
0.10437
0.10284
0.09857
0.08789
0.07721
0.05829
0.03937
0.01953
0.00000
-0.01892
-0.03937
-0.05493
-0.06958
-0.08270
-0.09247
-0.10101
-0.10559
-0.10834
-0.11078
-0.11230
-0.11505
-0.11688
-0.11688
-0.11566
-0.11597
-0.11993
-0.12054
-0.11658
-0.11627
-0.10986
-0.10376
-0.09521
-0.08972
-0.08484
-0.07996
-0.07690
-0.07721
-0.07812
-0.08301
-0.08820
-0.09735
-0.10681
-0.11475
-0.12207
-0.12756
-0.13062
-0.13062
-0.12878
-0.12573
-0.12177
-0.11627
-0.11627
-0.11139
-0.11322
-0.11505
-0.11658
-0.11963
-0.12115
-0.12054
-0.12085
-0.12054
-0.11902
-0.11597
-0.11169
-0.10895
-0.10590
-0.10254
-0.09766
-0.09064
-0.08514
-0.07568
-0.06409
-0.05005
-0.03113
-0.01221
0.01373
0.04242
0.07324
0.11047
0.15106
0.20386
0.26245
0.32990
0.40283
0.48431
0.56976
0.65674
0.74493
0.83679
0.92560
1.01898
1.11237
1.20880
1.30341
1.39801
1.49078
1.57928
1.66565
1.74469
1.81732
1.88416
1.94183
1.98914
2.02332
2.04163
2.04346
2.02454
1.98792
1.93634
1.86279
1.76849
1.65436
1.51672
1.35834
1.18774
1.00525
0.81482
0.62286
0.43060
0.24353
0.06531
-0.10010
-0.25391
-0.39337
-0.51575
-0.62592
-0.72113
-0.80292
-0.87372
-0.93475
-0.98328
-1.01654
-1.04034
-1.05377
-1.05804
-1.05255
-1.03729
-1.01685
-0.99213
-0.96344
-0.93414
-0.90637
-0.88043
-0.85144
-0.82153
-0.79407
-0.76752
-0.74036
-0.71350
-0.68848
-0.66223
-0.64056
-0.61584
-0.59296
-0.57312
-0.55389
-0.53436
-0.51636
-0.50171
-0.48981
-0.47638
-0.46295
-0.45227
-0.44189
-0.43182
-0.42175
-0.41260
-0.40314
-0.39368
-0.37933
-0.36896
-0.36011
-0.35126
-0.34424
-0.33936
-0.33600
-0.33081
-0.32684
-0.32043
-0.31433
-0.30579
-0.29572
-0.28778
-0.28168
-0.27557
-0.27039
-0.26764
-0.26276
-0.26031
-0.25726
-0.25787
-0.25787
-0.25604
-0.25269
-0.25269
-0.25055
-0.24750
-0.24750
-0.24750
-0.25208
-0.25208
-0.25299
-0.25269
-0.24872
-0.24628
-0.24353
-0.23865
-0.23346
-0.22858
-0.22217
-0.21698
-0.20813
-0.19592
-0.18311
-0.16907
-0.15228
-0.13763
-0.12299
-0.11017
-0.10071
-0.09125
-0.08270
-0.08118
-0.08575
-0.09125
-0.09674
-0.10223
-0.10803
-0.10925
-0.10681
-0.10223
-0.09735
-0.09064
-0.08545
-0.07996
-0.07538
-0.06958
-0.06744
-0.06348
-0.05798
-0.05341
-0.05127
-0.04639
-0.04089
-0.03662
-0.03265
-0.02899
-0.02777
-0.02625
-0.02319
-0.02319
-0.01862
-0.01831
-0.01801
-0.01434
-0.01373
-0.00916
-0.00732
0.00061
0.00580
0.01190
0.01801
0.02655
0.03632
0.04608
0.05707
0.06958
0.08026
0.09277
0.10345
0.11383
0.11932
0.12756
0.13580
0.14252
0.14862
0.15137
0.15594
0.15991
0.16541
0.17181
0.17853
0.18188
0.18555
0.18616
0.18951
0.18951
0.18616
0.18646
0.18372
0.18158
0.18005
0.18127
0.18097
0.18677
0.19684
0.20538
0.21973
0.23468
0.24506
0.25482
0.26001
0.26489
0.26794
0.27344
0.27405
0.26978
0.26855
0.26825
0.26825
0.26855
0.26855
0.26978
0.26825
0.27252
0.27344
0.27527
0.27863
0.28015
0.28320
0.28717
0.29022
0.29297
0.29175
0.28809
0.28442
0.27954
0.27649
0.27435
0.26947
0.26855
0.26794
0.26917
0.26672
0.26398
0.26001
0.25513
0.24750
0.24261
0.23529
0.22827
0.22095
0.21423
0.20813
0.20386
0.19928
0.19562
0.19196
0.18921
0.18585
0.18188
0.17487
0.16968
0.15686
0.14374
0.12970
0.11566
0.09613
0.08026
0.06500
0.05035
0.03571
0.02319
0.01068
0.00122
-0.01312
-0.02441
-0.03357
-0.04730
-0.06226
-0.07782
-0.09827
-0.11719
-0.13428
-0.15106
-0.16724
-0.18097
-0.19470
-0.20844
-0.21942
-0.23315
-0.24353
-0.25330
-0.26184
-0.26825
-0.27191
-0.27618
-0.27679
-0.27496
-0.27191
-0.27039
-0.26672
-0.26642
-0.26764
-0.26917
-0.27344
-0.28076
-0.28748
-0.29785
-0.30762
-0.31219
-0.32074
-0.32471
-0.33020
-0.33081
-0.33478
-0.33539
-0.33569
-0.33539
-0.33569
-0.33417
-0.33081
-0.32898
-0.32593
-0.32135
-0.31647
-0.31189
-0.30670
-0.30029
-0.29053
-0.28137
-0.27344
-0.26611
-0.26031
-0.25787
-0.25360
-0.25238
-0.25726
-0.25726
-0.25909
-0.26184
-0.26184
-0.26031
-0.25757
-0.25574
-0.25116
-0.24628
-0.24261
-0.23895
-0.23773
-0.23376
-0.23285
-0.23315
-0.23773
-0.23804
-0.24017
-0.24231
-0.24323
-0.24323
-0.23865
-0.23773
-0.23590
-0.23285
-0.22888
-0.22308
-0.21729
-0.20813
-0.20294
-0.19287
-0.18707
-0.17853
-0.17273
-0.16418
-0.15778
-0.15076
-0.14404
-0.13916
-0.12970
-0.12360
-0.11475
-0.10742
-0.10010
-0.09644
-0.09247
-0.08667
-0.08636
-0.08301
-0.07782
-0.07172
-0.06561
-0.05859
-0.05371
-0.05249
-0.05280
-0.05219
-0.05798
-0.06439
-0.07233
-0.08331
-0.09705
-0.10529
-0.11169
-0.11719
-0.12177
-0.12695
-0.13062
-0.13458
-0.13702
-0.14069
-0.14038
-0.14099
-0.13824
-0.13550
-0.13367
-0.13031
-0.12634
-0.12115
-0.11444
-0.10956
-0.10010
-0.08881
-0.07568
-0.06592
-0.05707
-0.04852
-0.04333
-0.04242
-0.04303
-0.04700
-0.05310
-0.05920
-0.06805
-0.07385
-0.08240
-0.09094
-0.09735
-0.10315
-0.10773
-0.10986
-0.11505
-0.11566
-0.11536
-0.11597
-0.11536
-0.11597
-0.11566
-0.11597
-0.11566
-0.11444
-0.11078
-0.10742
-0.10498
-0.10162
-0.10101
-0.09766
-0.09583
-0.09216
-0.09125
-0.08759
-0.08484
-0.08026
-0.07538
-0.07050
-0.06561
-0.06256
-0.05829
-0.05524
-0.05310
-0.05219
-0.05249
-0.05219
-0.05463
-0.05859
-0.06439
-0.06897
-0.07172
-0.07599
-0.08118
-0.08392
-0.08789
-0.09308
-0.09766
-0.10529
-0.11139
-0.11810
-0.12299
-0.12573
-0.12543
-0.12115
-0.11536
-0.10712
-0.09979
-0.09521
-0.09216
-0.09155
-0.09277
-0.09552
-0.10101
-0.10284
-0.10529
-0.10529
-0.10559
-0.10529
-0.10162
-0.09705
-0.09705
-0.09155
-0.09003
-0.08698
-0.08606
-0.08667
-0.09064
-0.09369
-0.09583
-0.10101
-0.10132
-0.10162
-0.09949
-0.09613
-0.09460
-0.09247
-0.08911
-0.08698
-0.08484
-0.08209
-0.08179
-0.08179
-0.08240
-0.08209
-0.08240
-0.08209
-0.07751
-0.07721
-0.07568
-0.07202
-0.06958
-0.06531
-0.06226
-0.05829
-0.05707
-0.05310
-0.05219
-0.05402
-0.05737
-0.05768
-0.05798
-0.05737
-0.05798
-0.05554
-0.05249
-0.05280
-0.05371
-0.05737
-0.05890
-0.06226
-0.06592
-0.06683
-0.06683
-0.06744
-0.06714
-0.06104
-0.05585
-0.04639
-0.03906
-0.03387
-0.03082
-0.02808
-0.02869
-0.02838
-0.02808
-0.02930
-0.03357
-0.03296
-0.02899
-0.02808
-0.02380
-0.02167
-0.01617
-0.01343
-0.01343
-0.01373
-0.01801
-0.02228
-0.02869
-0.03479
-0.03906
-0.04425
-0.04791
-0.04730
-0.04822
-0.04822
-0.04333
-0.04272
-0.04333
-0.04303
-0.04700
-0.04791
-0.04700
-0.04791
-0.04791
-0.04791
-0.05157
-0.05280
-0.05310
-0.05096
-0.04761
-0.04364
-0.03845
-0.03204
-0.02625
-0.01770
-0.01160
-0.00458
-0.00275
0.00153
0.00153
0.00122
0.00183
-0.00305
-0.00549
-0.00885
-0.01282
-0.01312
-0.01373
-0.01251
-0.01678
-0.01801
-0.01465
-0.01373
-0.01190
-0.00885
-0.00916
-0.00671
-0.00427
-0.00366
-0.00336
-0.00366
0.00183
0.00793
0.01251
0.01556
0.02014
0.02106
0.01648
0.01556
0.01495
0.01129
0.00702
0.00641
0.00183
0.00122
0.00092
0.00183
0.00122
0.00092
0.00092
0.00549
0.00641
0.00946
0.01282
0.01556
0.01953
0.02472
0.02655
0.03021
0.03418
0.03540
0.03540
0.03540
0.03601
0.03510
0.03326
0.03113
0.03052
0.02930
0.02594
0.02380
0.02136
0.01923
0.01678
0.01617
0.01617
0.01587
0.01984
0.02106
0.02533
0.02991
0.03021
0.03082
0.03113
0.02838
0.02441
0.01862
0.01068
0.00488
-0.00458
-0.01007
-0.01282
-0.00885
-0.00305
0.00275
0.01343
0.02594
0.03632
0.04578
0.05402
0.06073
0.07050
0.07629
0.08026
0.08362
0.08148
0.07843
0.07263
0.06409
0.05402
0.04456
0.03540
0.02472
0.01526
0.00946
0.00641
0.01068
0.01251
0.01801
0.02594
0.03265
0.03693
0.04425
0.04913
0.05188
0.05371
0.04822
0.04028
0.03418
0.02319
0.01495
0.00488
-0.00336
-0.00824
-0.00885
-0.00824
-0.00702
-0.00458
-0.00366
-0.00427
-0.00488
-0.00854
-0.01221
-0.01923
-0.02441
-0.03143
-0.03845
-0.04822
-0.05341
-0.06348
-0.06866
-0.07233
-0.07202
-0.07019
-0.06561
-0.05707
-0.04639
-0.03357
-0.02045
-0.00427
0.01099
0.02472
0.04028
0.05035
0.05890
0.06439
0.06897
0.06958
0.06927
0.06775
0.06531
0.06531
0.06104
0.06012
0.05890
0.05981
0.06012
0.06134
0.06592
0.07111
0.07843
0.08179
0.08728
0.09155
0.09613
0.09705
0.09796
0.09766
0.09766
0.09796
0.09644
0.09979
0.10223
0.10834
0.11780
0.12817
0.14191
0.15594
0.17273
0.18768
0.20233
0.21606
0.22522
0.23499
0.23987
0.23773
0.23254
0.22217
0.20935
0.19897
0.18372
0.17090
0.16113
0.15137
0.14160
0.13550
0.13062
0.12573
0.12085
0.11536
0.11078
0.10437
0.09888
0.09399
0.08911
0.08789
0.08789
0.08942
0.09430
0.10315
0.11292
0.12299
0.12878
0.13123
0.13214
0.13184
0.12848
0.12146
0.11200
0.09766
0.08209
0.06531
0.05066
0.03601
0.02136
0.01007
-0.00031
-0.01343
-0.02350
-0.03723
-0.05005
-0.06317
-0.07477
-0.08698
-0.09705
-0.10651
-0.11536
-0.12024
-0.12085
-0.12024
-0.11902
-0.11536
-0.11597
-0.11566
-0.11993
-0.12238
-0.12756
-0.13062
-0.13458
-0.13519
-0.13458
-0.13489
-0.13306
-0.13000
-0.13062
-0.12665
-0.12451
-0.11932
-0.11230
-0.10529
-0.09979
-0.09033
-0.08545
-0.08057
-0.07538
-0.06714
-0.05280
-0.03784
-0.02197
-0.00610
0.00793
0.02136
0.03540
0.04547
0.05554
0.06531
0.07050
0.08026
0.08667
0.09369
0.10284
0.11322
0.12726
0.14130
0.15533
0.17090
0.18524
0.20020
0.21240
0.22980
0.24384
0.25879
0.27527
0.29419
0.31586
0.34485
0.38361
0.42755
0.48340
0.54810
0.62103
0.69946
0.78247
0.86914
0.95764
1.04675
1.13953
1.23718
1.33026
1.42700
1.52374
1.62201
1.71783
1.80695
1.89117
1.96777
2.03857
2.09808
2.15027
2.18201
2.19727
2.19666
2.17834
2.13959
2.08496
2.01050
1.91528
1.79688
1.65710
1.50330
1.33301
1.15173
0.96680
0.77667
0.58960
0.41077
0.23621
0.07660
-0.07019
-0.20660
-0.32990
-0.43793
-0.53070
-0.61127
-0.67932
-0.73517
-0.78186
-0.81970
-0.85022
-0.87372
-0.88928
-0.90271
-0.90759
-0.91156
-0.91034
-0.90210
-0.88623
-0.86731
-0.84564
-0.81696
-0.78796
-0.75836
-0.72754
-0.69336
-0.66132
-0.62775
-0.59875
-0.56824
-0.53925
-0.51117
-0.49103
-0.47211
-0.45166
-0.43732
-0.42725
-0.41962
-0.41473
-0.41260
-0.40894
-0.40710
-0.40436
-0.40009
-0.39307
-0.38452
-0.37445
-0.36316
-0.34821
-0.33356
-0.31891
-0.30426
-0.29053
-0.28168
-0.27740
-0.27283
-0.27191
-0.27191
-0.27557
-0.27679
-0.27710
-0.27710
-0.27710
-0.27283
-0.26581
-0.26062
-0.25238
-0.24048
-0.22797
-0.21790
-0.20447
-0.19348
-0.17975
-0.16937
-0.16327
-0.15991
-0.15625
-0.15472
-0.15900
-0.15961
-0.16052
-0.15961
-0.16418
-0.16846
-0.17334
-0.18005
-0.18524
-0.19012
-0.19379
-0.19440
-0.19257
-0.18738
-0.17914
-0.17090
-0.16418
-0.15442
-0.14435
-0.13916
-0.13000
-0.12360
-0.11932
-0.11444
-0.10925
-0.10529
-0.10010
-0.09552
-0.09155
-0.08575
-0.08026
-0.07355
-0.06622
-0.05859
-0.05402
-0.05219
-0.05280
-0.05280
-0.05463
-0.05707
-0.06195
-0.06317
-0.06226
-0.06134
-0.05737
-0.05188
-0.04639
-0.03662
-0.02869
-0.02258
-0.01709
-0.00977
-0.00458
0.00031
0.00702
0.01312
0.01923
0.02625
0.03632
0.04547
0.05646
0.06989
0.08026
0.08850
0.09766
0.10345
0.11261
0.12177
0.13214
0.14404
0.15839
0.17151
0.18616
0.19592
0.20203
0.20508
0.20142
0.19470
0.18402
0.16876
0.15198
0.13763
0.12634
0.11627
0.10864
0.10712
0.10773
0.11108
0.11749
0.12787
0.13885
0.15350
0.16785
0.18127
0.19501
0.20966
0.22034
0.23346
0.24475
0.25452
0.26001
0.26520
0.26855
0.27252
0.27222
0.26917
0.26428
0.25726
0.25299
0.24750
0.24445
0.24048
0.23956
0.23926
0.23926
0.23956
0.24078
0.24414
0.24536
0.24902
0.24872
0.24841
0.24902
0.24719
0.24414
0.24048
0.23560
0.22858
0.22339
0.21667
0.20996
0.20203
0.19470
0.18890
0.18097
0.17700
0.17487
0.17151
0.17181
0.17578
0.17578
0.17914
0.17609
0.17181
0.16510
0.15656
0.14282
0.13031
0.11536
0.10040
0.08636
0.07172
0.05798
0.04333
0.02838
0.01373
0.00092
-0.00977
-0.02380
-0.03693
-0.05341
-0.06927
-0.08362
-0.09644
-0.11047
-0.12268
-0.13641
-0.14954
-0.16449
-0.17517
-0.18890
-0.20203
-0.21393
-0.22797
-0.24231
-0.25208
-0.26306
-0.27252
-0.27802
-0.28564
-0.29236
-0.29785
-0.30518
-0.31097
-0.32043
-0.32623
-0.33539
-0.34454
-0.35034
-0.35492
-0.35889
-0.35980
-0.35980
-0.35980
-0.36041
-0.36224
-0.36438
-0.36530
-0.36469
-0.36438
-0.36499
-0.36469
-0.36133
-0.36041
-0.36041
-0.36041
-0.36224
-0.36499
-0.36896
-0.37445
-0.37689
-0.37994
-0.38361
-0.38544
-0.38971
-0.38879
-0.38971
-0.38940
-0.38910
-0.38879
-0.38574
-0.38330
-0.37598
-0.36926
-0.35980
-0.35004
-0.33966
-0.32990
-0.32013
-0.30670
-0.29633
-0.28625
-0.28015
-0.27649
-0.27618
-0.27649
-0.27832
-0.28320
-0.28809
-0.29327
-0.29785
-0.30273
-0.30762
-0.31097
-0.31586
-0.31586
-0.31647
-0.31616
-0.31494
-0.30945
-0.30060
-0.29114
-0.27771
-0.26642
-0.25299
-0.24231
-0.23224
-0.22491
-0.21942
-0.21484
-0.21240
-0.20782
-0.20264
-0.19531
-0.18799
-0.18402
-0.18036
-0.17975
-0.17914
-0.18158
-0.18433
-0.18768
-0.18951
-0.19043
-0.19409
-0.19379
-0.19379
-0.19012
-0.18555
-0.18005
-0.17334
-0.16388
-0.15869
-0.14954
-0.14374
-0.14038
-0.13977
-0.14038
-0.14099
-0.14648
-0.15106
-0.15442
-0.15930
-0.16052
-0.16022
-0.15869
-0.15533
-0.15503
-0.15137
-0.14862
-0.14343
-0.13977
-0.13641
-0.13123
-0.13062
-0.12604
-0.12543
-0.12573
-0.12177
-0.12024
-0.12177
-0.11688
-0.11475
-0.10956
-0.10498
-0.09583
-0.08759
-0.08148
-0.07538
-0.07233
-0.07385
-0.07935
-0.08698
-0.09277
-0.10193
-0.10986
-0.11627
-0.12177
-0.12695
-0.13000
-0.13428
-0.13519
-0.13550
-0.13458
-0.13550
-0.13092
-0.12878
-0.12604
-0.12207
-0.11658
-0.11261
-0.10986
-0.10590
-0.10620
-0.10590
-0.10620
-0.10620
-0.10590
-0.10437
-0.10162
-0.10193
-0.10193
-0.10284
-0.10590
-0.10651
-0.10559
-0.10651
-0.10986
-0.11108
-0.11078
-0.11139
-0.11444
-0.11536
-0.11902
-0.11993
-0.12024
-0.11597
-0.11230
-0.10712
-0.10193
-0.09766
-0.09491
-0.09094
-0.09186
-0.09125
-0.09338
-0.09552
-0.09857
-0.10101
-0.10468
-0.10773
-0.11108
-0.11200
-0.11536
-0.11566
-0.11200
-0.11108
-0.10681
-0.10193
-0.09583
-0.09003
-0.08484
-0.08057
-0.07629
-0.07660
-0.07690
-0.07660
-0.07812
-0.08362
-0.08759
-0.09552
-0.10223
-0.10803
-0.11444
-0.11932
-0.12512
-0.12543
-0.12177
-0.11658
-0.11017
-0.10162
-0.09583
-0.08728
-0.08270
-0.08057
-0.07843
-0.08118
-0.08728
-0.09277
-0.10162
-0.10681
-0.11627
-0.12207
-0.12573
-0.12878
-0.13031
-0.13031
-0.13062
-0.12848
-0.12543
-0.12146
-0.11688
-0.11230
-0.10651
-0.10223
-0.09705
-0.09094
-0.08545
-0.08057
-0.07568
-0.07050
-0.06592
-0.06165
-0.05615
-0.05219
-0.04852
-0.04730
-0.04364
-0.04272
-0.03845
-0.03632
-0.03357
-0.03174
-0.02808
-0.02777
-0.02991
-0.03326
-0.03693
-0.03967
-0.04242
-0.04395
-0.04730
-0.04913
-0.05219
-0.05371
-0.05707
-0.06134
-0.06226
-0.06653
-0.06775
-0.06622
-0.06134
-0.05646
-0.05157
-0.04211
-0.03265
-0.02258
-0.01678
-0.00977
-0.00732
-0.00366
-0.00214
0.00092
-0.00061
-0.00366
-0.00397
-0.00366
-0.00336
-0.00397
0.00092
0.00305
0.00610
0.00580
0.00641
0.00153
-0.00427
-0.01709
-0.02930
-0.04181
-0.05432
-0.06592
-0.07263
-0.07721
-0.08118
-0.08118
-0.07721
-0.07507
-0.07202
-0.07050
-0.06714
-0.06348
-0.06104
-0.05646
-0.05157
-0.04639
-0.03754
-0.02716
-0.01740
-0.00732
0.00183
0.01190
0.01709
0.02045
0.02472
0.02167
0.01984
0.01434
0.00641
0.00092
-0.00824
-0.01190
-0.01678
-0.01831
-0.01801
-0.01434
-0.01160
-0.00885
-0.00854
-0.01038
-0.01282
-0.01831
-0.02441
-0.02899
-0.03387
-0.03723
-0.04211
-0.04303
-0.04150
-0.03784
-0.03632
-0.03326
-0.02899
-0.02441
-0.01862
-0.01434
-0.01221
-0.00763
-0.00366
-0.00214
0.00122
0.00153
0.00122
0.00183
0.00153
0.00183
0.00122
0.00275
0.00580
0.00549
0.00977
0.01129
0.01526
0.01556
0.01587
0.02014
0.02106
0.02075
0.02106
0.02045
0.02136
0.02045
0.02258
0.02716
0.03235
0.04120
0.05066
0.05829
0.06134
0.06104
0.06042
0.05432
0.04883
0.03998
0.03021
0.02441
0.01953
0.01617
0.01587
0.01770
0.02136
0.02106
0.02075
0.01709
0.01465
0.01068
0.00702
0.00610
0.00580
0.01007
0.01251
0.01740
0.02167
0.03113
0.04120
0.05493
0.06561
0.07111
0.07965
0.08453
0.08820
0.08850
0.09216
0.09338
0.09277
0.09277
0.09674
0.09857
0.10376
0.11108
0.11810
0.12787
0.13702
0.15076
0.16174
0.17181
0.18524
0.19623
0.20538
0.21576
0.22491
0.23285
0.23560
0.23773
0.23315
0.22888
0.21912
0.20935
0.19836
0.18555
0.17181
0.15472
0.13763
0.12299
0.10834
0.09338
0.08301
0.07416
0.06470
0.05859
0.05493
0.05157
0.05066
0.05005
0.05096
0.05493
0.05890
0.06073
0.06500
0.06287
0.05859
0.05402
0.04425
0.03937
0.03021
0.02472
0.01648
0.01160
0.00702
0.00275
-0.00305
-0.00519
-0.00854
-0.01221
-0.01709
-0.02258
-0.02838
-0.03815
-0.04791
-0.05981
-0.07263
-0.08179
-0.09583
-0.10620
-0.11627
-0.12604
-0.13580
-0.14130
-0.14679
-0.15015
-0.14984
-0.15045
-0.14557
-0.14374
-0.14008
-0.13885
-0.13580
-0.13397
-0.13031
-0.13062
-0.13062
-0.12939
-0.12482
-0.12512
-0.12390
-0.12115
-0.11688
-0.11047
-0.10468
-0.10010
-0.09460
-0.08789
-0.08240
-0.07690
-0.07111
-0.06744
-0.06348
-0.06317
-0.06256
-0.06348
-0.06866
-0.07385
-0.07843
-0.08362
-0.08789
-0.09552
-0.10223
-0.10773
-0.11688
-0.12238
-0.12909
-0.13489
-0.13397
-0.12482
-0.11414
-0.09521
-0.07080
-0.04181
-0.00763
0.03326
0.08087
0.13916
0.20325
0.27069
0.34515
0.42206
0.50659
0.59387
0.68268
0.77637
0.86853
0.96649
1.06995
1.17188
1.27838
1.38580
1.49323
1.59882
1.69708
1.79047
1.87347
1.95007
2.01355
2.06543
2.09869
2.11304
2.10632
2.08191
2.04285
1.98822
1.91620
1.82587
1.71295
1.57837
1.42975
1.26740
1.09222
0.91156
0.72388
0.53528
0.35004
0.17120
0.00519
-0.14984
-0.29449
-0.42145
-0.53497
-0.63599
-0.71899
-0.79407
-0.85785
-0.91217
-0.95703
-0.99487
-1.02112
-1.03882
-1.04889
-1.04919
-1.04309
-1.03180
-1.01379
-0.99426
-0.97046
-0.94543
-0.91980
-0.89569
-0.89203
-0.89203
-0.89233
-0.89203
-0.89233
-0.89203
-0.89172
-0.89172
-0.89203
-0.89233
-0.89264
-0.89203
-0.89203
-0.89203
-0.89172
-0.89264
-0.89233
-0.89233
-0.89233
-0.75531
-0.43610
-0.42145
-0.42480
-0.42938
-0.43488
-0.43945
-0.44250
-0.44128
-0.43671
-0.42908
-0.42297
-0.41321
-0.39978
-0.38940
-0.37872
-0.36530
-0.35553
-0.34485
-0.33539
-0.32532
-0.31891
-0.31586
-0.30731
-0.30090
-0.29541
-0.28748
-0.28137
-0.27618
-0.26642
-0.26154
-0.25299
-0.24414
-0.23956
-0.23376
-0.22858
-0.22675
-0.22400
-0.21973
-0.21423
-0.21027
-0.20508
-0.19958
-0.19501
-0.18982
-0.18555
-0.18036
-0.17578
-0.17334
-0.16937
-0.16541
-0.16449
-0.16144
-0.15991
-0.15900
-0.15533
-0.15045
-0.14862
-0.14496
-0.14343
-0.14008
-0.14008
-0.13702
-0.13153
-0.12451
-0.11963
-0.11047
-0.10132
-0.09491
-0.08636
-0.07629
-0.07080
-0.06195
-0.05219
-0.04578
-0.03845
-0.03387
-0.02930
-0.02808
-0.02777
-0.02777
-0.03174
-0.03296
-0.03662
-0.03723
-0.03815
-0.03815
-0.03632
-0.03174
-0.02655
-0.01740
-0.01251
-0.00305
0.00641
0.01251
0.02136
0.03479
0.04578
0.05463
0.06470
0.07263
0.08026
0.08820
0.09369
0.09888
0.10376
0.10742
0.11139
0.11230
0.11139
0.10773
0.10834
0.10712
0.10834
0.10773
0.10712
0.11108
0.11780
0.12604
0.13306
0.14221
0.15320
0.16632
0.17639
0.18555
0.19562
0.20569
0.21637
0.22919
0.23987
0.24963
0.25848
0.26855
0.27466
0.28290
0.28351
0.28229
0.28229
0.27863
0.27618
0.27405
0.27740
0.27954
0.28717
0.29388
0.30121
0.30762
0.31433
0.31891
0.32349
0.32715
0.32776
0.32318
0.32166
0.31799
0.31525
0.31219
0.30823
0.30792
0.30823
0.30701
0.30762
0.30609
0.30151
0.29663
0.29144
0.28473
0.27802
0.27435
0.26917
0.27252
0.27344
0.27679
0.27832
0.27893
0.27679
0.27313
0.26337
0.24963
0.23743
0.22247
0.20844
0.19379
0.18066
0.17059
0.16113
0.15137
0.14557
0.13763
0.13184
0.12360
0.11658
0.10803
0.09735
0.08698
0.07477
0.06012
0.04639
0.03326
0.02045
0.00702
-0.00519
-0.01923
-0.03448
-0.05219
-0.06592
-0.08087
-0.09521
-0.11017
-0.12054
-0.13062
-0.14008
-0.15045
-0.15991
-0.16998
-0.17944
-0.18555
-0.19348
-0.19836
-0.20020
-0.20325
-0.20752
-0.21057
-0.21454
-0.22034
-0.22491
-0.23346
-0.24323
-0.24841
-0.25604
-0.26276
-0.26825
-0.27283
-0.28229
-0.28778
-0.29327
-0.29999
-0.30396
-0.30579
-0.31006
-0.31219
-0.31128
-0.31464
-0.31677
-0.31982
-0.32135
-0.32471
-0.32745
-0.33081
-0.33051
-0.32898
-0.32593
-0.32166
-0.31952
-0.31616
-0.31738
-0.32074
-0.32410
-0.32959
-0.33051
-0.33112
-0.33081
-0.32684
-0.32196
-0.31769
-0.31036
-0.30518
-0.29633
-0.29022
-0.28107
-0.27588
-0.27252
-0.26764
-0.26337
-0.25879
-0.25604
-0.25116
-0.24780
-0.24414
-0.24109
-0.23865
-0.23438
-0.23285
-0.23315
-0.23285
-0.23346
-0.23468
-0.23834
-0.23743
-0.23804
-0.23712
-0.23224
-0.22736
-0.22186
-0.21454
-0.20874
-0.20020
-0.19318
-0.18799
-0.18005
-0.17761
-0.17456
-0.16998
-0.16968
-0.16998
-0.16907
-0.16968
-0.16937
-0.16998
-0.16968
-0.16907
-0.16998
-0.16754
-0.16479
-0.16052
-0.15594
-0.15106
-0.14618
-0.13947
-0.13550
-0.13123
-0.12634
-0.12268
-0.11963
-0.11536
-0.11169
-0.11017
-0.10712
-0.10590
-0.10590
-0.10590
-0.10590
-0.10651
-0.10529
-0.10559
-0.10498
-0.10193
-0.10132
-0.10132
-0.09735
-0.09705
-0.09644
-0.09613
-0.09521
-0.09155
-0.09094
-0.09064
-0.08759
-0.08545
-0.08270
-0.08148
-0.08209
-0.08270
-0.08179
-0.08209
-0.08118
-0.08209
-0.08148
-0.08148
-0.08179
-0.08209
-0.08209
-0.08026
-0.07599
-0.06714
-0.06104
-0.05219
-0.04181
-0.03723
-0.03143
-0.02808
-0.02747
-0.02808
-0.02777
-0.03174
-0.03418
-0.03876
-0.04272
-0.04242
-0.04272
-0.03845
-0.03754
-0.03906
-0.04272
-0.04395
-0.04913
-0.05402
-0.06073
-0.06622
-0.07080
-0.07202
-0.07172
-0.07080
-0.06744
-0.06348
-0.05859
-0.05615
-0.05249
-0.05371
-0.05890
-0.06317
-0.07202
-0.08087
-0.08759
-0.09674
-0.10651
-0.11322
-0.11719
-0.12115
-0.12146
-0.11536
-0.10620
-0.09460
-0.08057
-0.06653
-0.05219
-0.04303
-0.03235
-0.02380
-0.01923
-0.01648
-0.01373
-0.01312
-0.01434
-0.01984
-0.02808
-0.03967
-0.05249
-0.06287
-0.06744
-0.07263
-0.07568
-0.07538
-0.07050
-0.06165
-0.04852
-0.03754
-0.02716
-0.01801
-0.01312
-0.01373
-0.01740
-0.02319
-0.03693
-0.04944
-0.06622
-0.07721
-0.08545
-0.08820
-0.08759
-0.08698
-0.08240
-0.07751
-0.07202
-0.06104
-0.04730
-0.03357
-0.01923
-0.00458
0.01099
0.02106
0.02533
0.02563
0.01892
0.00519
-0.01434
-0.03723
-0.05768
-0.07751
-0.09674
-0.11139
-0.12085
-0.12939
-0.13428
-0.13428
-0.12909
-0.12421
-0.11536
-0.10468
-0.09003
-0.07629
-0.05829
-0.04211
-0.02319
-0.00702
0.00671
0.01617
0.02045
0.01709
0.01190
0.00641
-0.00336
-0.01373
-0.01892
-0.02686
-0.02960
-0.03326
-0.03326
-0.03326
-0.03418
-0.03723
-0.04181
-0.04700
-0.05188
-0.05646
-0.06165
-0.06592
-0.06836
-0.07172
-0.07172
-0.07233
-0.07050
-0.06744
-0.06348
-0.05798
-0.05707
-0.05463
-0.05249
-0.05127
-0.04639
-0.04120
-0.03387
-0.02777
-0.01862
-0.01068
-0.00305
0.00153
0.00580
0.00824
0.01068
0.01526
0.01709
0.02197
0.02686
0.03082
0.03143
0.02930
0.02106
0.01465
0.00610
-0.00244
-0.00763
-0.01221
-0.01312
-0.00946
-0.00519
0.00031
0.00671
0.01495
0.02136
0.02655
0.03235
0.03998
0.05005
0.05615
0.06317
0.06866
0.06836
0.06256
0.05493
0.04089
0.02838
0.01648
0.00610
-0.00305
-0.00916
-0.01434
-0.01862
-0.02197
-0.02319
-0.02136
-0.01801
-0.01404
-0.00854
-0.00244
0.00122
0.00519
0.00580
0.00641
0.00580
0.00214
0.00122
0.00092
0.00275
0.00671
0.00763
0.01099
0.01587
0.01923
0.02625
0.03204
0.03967
0.04425
0.04944
0.04944
0.04883
0.04120
0.03571
0.02563
0.01556
0.00549
-0.00275
-0.00824
-0.01404
-0.02167
-0.02289
-0.02686
-0.02777
-0.02319
-0.01740
-0.01251
0.00061
0.01221
0.02716
0.04150
0.05981
0.07904
0.09796
0.11261
0.12207
0.12817
0.13031
0.12756
0.12146
0.11566
0.10773
0.09705
0.08698
0.08148
0.07812
0.07416
0.07507
0.07416
0.07812
0.08087
0.08484
0.09369
0.09918
0.10742
0.11749
0.12695
0.13733
0.14709
0.15594
0.17059
0.17975
0.18585
0.19440
0.19989
0.20477
0.20508
0.20874
0.20996
0.20630
0.20355
0.19623
0.19104
0.18219
0.17578
0.16785
0.16174
0.15686
0.15228
0.15167
0.14740
0.14679
0.14252
0.13855
0.13367
0.12634
0.11902
0.11169
0.10376
0.09766
0.09186
0.08453
0.07965
0.07446
0.06592
0.05920
0.05035
0.04120
0.03510
0.02991
0.02228
0.01678
0.01617
0.01282
0.01068
0.01129
0.00671
0.00580
0.00214
-0.00305
-0.00732
-0.01038
-0.01312
-0.01709
-0.01923
-0.02289
-0.02686
-0.02930
-0.03418
-0.04303
-0.05310
-0.06653
-0.08148
-0.09735
-0.11139
-0.12115
-0.12543
-0.12573
-0.12390
-0.11688
-0.11017
-0.10437
-0.09735
-0.09247
-0.09003
-0.08667
-0.08667
-0.08850
-0.09155
-0.09521
-0.10193
-0.10681
-0.11383
-0.11963
-0.12421
-0.12939
-0.12970
-0.13000
-0.13062
-0.12634
-0.12360
-0.12115
-0.11688
-0.11414
-0.11108
-0.11078
-0.11078
-0.11078
-0.11139
-0.11047
-0.11200
-0.11566
-0.11566
-0.11444
-0.11047
-0.10986
-0.10254
-0.09460
-0.08148
-0.06714
-0.04700
-0.02319
0.00153
0.03235
0.06653
0.09918
0.13855
0.18219
0.23132
0.28534
0.34668
0.41138
0.48553
0.56610
0.65216
0.74524
0.84320
0.94421
1.04828
1.15875
1.27136
1.38763
1.50085
1.61255
1.71906
1.81671
1.90613
1.98761
2.05566
2.10815
2.14386
2.16217
2.16003
2.14172
2.10785
2.05383
1.97968
1.88660
1.77460
1.64368
1.49628
1.33362
1.15875
0.97351
0.78827
0.60303
0.41962
0.24200
0.07294
-0.08270
-0.22888
-0.36072
-0.47729
-0.58472
-0.67841
-0.76050
-0.82855
-0.88623
-0.93140
-0.96619
-0.98907
-1.00037
-1.00067
-0.99335
-0.97870
-0.95581
-0.92499
-0.89478
-0.86304
-0.83160
-0.80292
-0.77576
-0.75134
-0.73151
-0.71472
-0.70099
-0.68573
-0.67108
-0.65613
-0.64148
-0.62775
-0.61279
-0.59509
-0.57922
-0.56000
-0.54047
-0.52063
-0.50110
-0.48523
-0.47119
-0.45807
-0.44678
-0.43274
-0.42358
-0.40955
-0.39856
-0.38940
-0.38330
-0.37994
-0.37964
-0.38330
-0.38879
-0.39337
-0.39795
-0.39948
-0.39764
-0.39276
-0.38391
-0.37476
-0.36102
-0.35034
-0.34058
-0.32715
-0.31982
-0.31250
-0.30762
-0.30518
-0.30121
-0.30151
-0.30060
-0.30518
-0.30579
-0.30670
-0.30640
-0.30579
-0.30579
-0.30609
-0.30243
-0.30029
-0.29572
-0.29022
-0.28168
-0.27008
-0.25696
-0.24628
-0.23315
-0.21881
-0.20691
-0.19257
-0.17822
-0.16296
-0.14984
-0.13672
-0.12573
-0.11688
-0.11230
-0.11139
-0.11230
-0.11688
-0.12207
-0.12909
-0.13184
-0.13550
-0.13885
-0.14130
-0.14465
-0.14496
-0.14465
-0.14526
-0.14130
-0.13641
-0.13428
-0.12695
-0.11963
-0.10651
-0.09552
-0.08148
-0.06805
-0.05676
-0.04791
-0.04150
-0.03418
-0.02960
-0.02655
-0.02319
-0.02167
-0.01831
-0.02136
-0.01984
-0.01801
-0.01740
-0.01404
-0.01312
-0.01312
-0.00977
-0.00824
-0.00702
-0.00397
0.00061
0.00488
0.00946
0.01648
0.02441
0.03113
0.04059
0.05005
0.06104
0.07568
0.09308
0.10864
0.12695
0.14130
0.15137
0.16022
0.16022
0.15503
0.14771
0.14099
0.13214
0.12329
0.12238
0.12299
0.12421
0.12878
0.13306
0.14069
0.14679
0.15686
0.16632
0.17639
0.18738
0.20081
0.21149
0.22491
0.23743
0.24902
0.25848
0.26855
0.27649
0.28351
0.28961
0.29419
0.30212
0.30823
0.31372
0.31738
0.31738
0.31372
0.30884
0.30396
0.29907
0.29449
0.28900
0.28473
0.28198
0.27863
0.27985
0.28320
0.28320
0.28442
0.28809
0.28839
0.28809
0.28442
0.28320
0.27924
0.27710
0.27344
0.26917
0.26459
0.26306
0.25757
0.25024
0.24536
0.24017
0.23529
0.23315
0.22919
0.22949
0.22888
0.23376
0.23071
0.22949
0.22614
0.22003
0.21027
0.19714
0.18280
0.16541
0.14496
0.12207
0.10254
0.07996
0.05981
0.04059
0.02136
0.00153
-0.01404
-0.02899
-0.04272
-0.04883
-0.05341
-0.05676
-0.05951
-0.06317
-0.06836
-0.07355
-0.08270
-0.09186
-0.10162
-0.11108
-0.12085
-0.13367
-0.14923
-0.16388
-0.17792
-0.19348
-0.20416
-0.21484
-0.22705
-0.23376
-0.24170
-0.24689
-0.25330
-0.25879
-0.26215
-0.26611
-0.27100
-0.27679
-0.28320
-0.28748
-0.29114
-0.29266
-0.29633
-0.29602
-0.30029
-0.30212
-0.30579
-0.31036
-0.31128
-0.30731
-0.30487
-0.30121
-0.30029
-0.29724
-0.29816
-0.30090
-0.30518
-0.30670
-0.30945
-0.31006
-0.30701
-0.30243
-0.29694
-0.29572
-0.29083
-0.28625
-0.28290
-0.28137
-0.28107
-0.28198
-0.28168
-0.28412
-0.28198
-0.28046
-0.27740
-0.27313
-0.26825
-0.26581
-0.26093
-0.25757
-0.25391
-0.25146
-0.24780
-0.24353
-0.24139
-0.23773
-0.23682
-0.23499
-0.23773
-0.23804
-0.23895
-0.23804
-0.23682
-0.23132
-0.22644
-0.22186
-0.21790
-0.21301
-0.20874
-0.20447
-0.20020
-0.19501
-0.18921
-0.17914
-0.16937
-0.15991
-0.15106
-0.14435
-0.13672
-0.13092
-0.13031
-0.13000
-0.13428
-0.13611
-0.13977
-0.14374
-0.14893
-0.15381
-0.15686
-0.15869
-0.15533
-0.15411
-0.15106
-0.14679
-0.14130
-0.13947
-0.13153
-0.12573
-0.12207
-0.11536
-0.10956
-0.10529
-0.10010
-0.09674
-0.09277
-0.09064
-0.08575
-0.08087
-0.07568
-0.07019
-0.06561
-0.06256
-0.06226
-0.06226
-0.06653
-0.07080
-0.07629
-0.07782
-0.08209
-0.08179
-0.08179
-0.08301
-0.08698
-0.08667
-0.08636
-0.08698
-0.08636
-0.09064
-0.09125
-0.09064
-0.09064
-0.09155
-0.08789
-0.08514
-0.08087
-0.07355
-0.07080
-0.06744
-0.06714
-0.06348
-0.06439
-0.06653
-0.06714
-0.06805
-0.07172
-0.06805
-0.06622
-0.05798
-0.04730
-0.03418
-0.02258
-0.01434
-0.01373
-0.01434
-0.01953
-0.02777
-0.03723
-0.05127
-0.06226
-0.07172
-0.07751
-0.08209
-0.08148
-0.08148
-0.07782
-0.07629
-0.07629
-0.07660
-0.07629
-0.08057
-0.08575
-0.09064
-0.09460
-0.10071
-0.10162
-0.10529
-0.10529
-0.10620
-0.10620
-0.10651
-0.10559
-0.10223
-0.10132
-0.10162
-0.09766
-0.09613
-0.09552
-0.09125
-0.09155
-0.09003
-0.08667
-0.08514
-0.08240
-0.07690
-0.07080
-0.06592
-0.06104
-0.06195
-0.06592
-0.07080
-0.07568
-0.08057
-0.08514
-0.09033
-0.09155
-0.09125
-0.08789
-0.08575
-0.08057
-0.07568
-0.07233
-0.06927
-0.06622
-0.06287
-0.06317
-0.06683
-0.06836
-0.07294
-0.07782
-0.08179
-0.08301
-0.08301
-0.08026
-0.07599
-0.07050
-0.06409
-0.05707
-0.04913
-0.04395
-0.03815
-0.03784
-0.03784
-0.03876
-0.04242
-0.04700
-0.04944
-0.05402
-0.05859
-0.06256
-0.06805
-0.07263
-0.08087
-0.08514
-0.09064
-0.09094
-0.09186
-0.09491
-0.09613
-0.09521
-0.09186
-0.09033
-0.08636
-0.08331
-0.07812
-0.07324
-0.07019
-0.06714
-0.06378
-0.06287
-0.06256
-0.05859
-0.05798
-0.05615
-0.05219
-0.05157
-0.04791
-0.04700
-0.04303
-0.04242
-0.04150
-0.03815
-0.03723
-0.03296
-0.02869
-0.02441
-0.02258
-0.01923
-0.01862
-0.01770
-0.01801
-0.01831
-0.01801
-0.01801
-0.01801
-0.01740
-0.01923
-0.02289
-0.02686
-0.03235
-0.03418
-0.03754
-0.03754
-0.04181
-0.04272
-0.04120
-0.03601
-0.03204
-0.02411
-0.01801
-0.00885
-0.00275
0.00305
0.00610
0.00610
0.00641
0.00610
0.00214
0.00000
-0.00458
-0.00916
-0.01343
-0.01770
-0.01801
-0.02289
-0.02686
-0.03174
-0.03693
-0.04181
-0.04639
-0.05127
-0.05249
-0.05280
-0.05219
-0.04852
-0.04395
-0.03876
-0.03632
-0.03326
-0.03296
-0.03326
-0.03265
-0.03204
-0.02350
-0.01648
-0.00366
0.00641
0.01495
0.01984
0.02106
0.01923
0.01526
0.00702
0.00122
-0.00427
-0.01007
-0.01404
-0.01953
-0.02258
-0.02686
-0.02808
-0.02838
-0.02869
-0.02380
-0.01801
-0.00824
0.00092
0.01465
0.02594
0.03937
0.04974
0.06042
0.06927
0.07935
0.08270
0.08728
0.08789
0.08820
0.08820
0.08789
0.08820
0.08820
0.08789
0.08820
0.08942
0.09369
0.10254
0.10834
0.11749
0.12573
0.13214
0.14160
0.15106
0.16113
0.17120
0.18097
0.19073
0.20050
0.20874
0.21545
0.21912
0.22369
0.22125
0.21759
0.21149
0.20538
0.19501
0.18616
0.17578
0.16632
0.15625
0.15045
0.14679
0.14313
0.14191
0.14038
0.13306
0.12726
0.11749
0.10803
0.09766
0.08881
0.07965
0.07080
0.06561
0.06500
0.06104
0.05981
0.05981
0.05981
0.05890
0.05493
0.05402
0.05066
0.05035
0.05035
0.05035
0.05066
0.05035
0.04669
0.04395
0.03967
0.03143
0.02533
0.01495
0.00153
-0.00916
-0.02289
-0.03387
-0.04730
-0.05615
-0.06256
-0.06714
-0.07141
-0.07202
-0.07202
-0.07172
-0.06805
-0.06714
-0.06714
-0.07111
-0.07324
-0.07843
-0.08514
-0.09155
-0.09735
-0.10498
-0.10986
-0.11505
-0.11963
-0.12054
-0.11688
-0.10986
-0.10162
-0.09277
-0.08759
-0.08698
-0.09003
-0.09277
-0.09705
-0.10193
-0.10559
-0.10986
-0.11139
-0.11078
-0.11047
-0.11169
-0.11047
-0.11017
-0.11078
-0.11505
-0.11627
-0.11719
-0.12115
-0.12085
-0.12482
-0.12573
-0.12909
-0.13184
-0.13519
-0.13672
-0.14038
-0.14008
-0.14038
-0.13733
-0.13000
-0.12024
-0.10590
-0.08667
-0.06256
-0.03296
-0.00244
0.03510
0.07507
0.12756
0.18646
0.25330
0.32593
0.40375
0.48370
0.56976
0.65460
0.74615
0.83832
0.93262
1.03455
1.14227
1.25275
1.36719
1.47858
1.58875
1.69312
1.78650
1.87347
1.94733
2.01324
2.06329
2.10205
2.11914
2.11945
2.10266
2.06879
2.01569
1.94244
1.84998
1.73828
1.60797
1.46240
1.30951
1.14410
0.97656
0.80170
0.62744
0.45624
0.29022
0.12787
-0.02136
-0.16327
-0.29541
-0.41626
-0.52368
-0.62195
-0.70618
-0.77911
-0.83984
-0.88715
-0.92194
-0.94574
-0.96039
-0.96558
-0.96466
-0.95581
-0.94574
-0.93109
-0.91125
-0.89264
-0.86853
-0.84351
-0.81421
-0.78522
-0.75592
-0.72632
-0.69824
-0.67291
-0.64423
-0.62225
-0.59937
-0.57922
-0.56030
-0.54474
-0.53223
-0.51971
-0.50720
-0.49713
-0.49072
-0.48157
-0.47607
-0.46814
-0.46204
-0.45715
-0.44861
-0.44281
-0.43274
-0.42755
-0.41840
-0.40924
-0.39917
-0.38910
-0.37994
-0.37140
-0.36591
-0.36163
-0.35614
-0.35553
-0.35370
-0.34973
-0.34637
-0.34393
-0.33936
-0.33417
-0.32959
-0.32196
-0.31647
-0.30670
-0.29694
-0.29022
-0.28198
-0.27222
-0.26581
-0.25879
-0.25360
-0.24933
-0.24475
-0.23956
-0.23376
-0.22919
-0.22461
-0.22217
-0.21912
-0.21759
-0.21423
-0.20966
-0.20569
-0.20050
-0.19501
-0.18921
-0.18311
-0.17853
-0.17059
-0.16449
-0.15900
-0.15167
-0.14618
-0.13977
-0.13428
-0.12909
-0.12573
-0.12421
-0.12054
-0.11688
-0.11230
-0.10742
-0.10162
-0.09277
-0.08698
-0.07721
-0.07050
-0.06592
-0.06256
-0.05798
-0.05707
-0.05707
-0.05737
-0.05798
-0.05768
-0.05768
-0.05646
-0.05280
-0.04761
-0.04181
-0.03296
-0.02289
-0.01221
0.00244
0.01556
0.02838
0.04028
0.04639
0.05157
0.05524
0.05951
0.06104
0.06500
0.06653
0.06927
0.07355
0.07538
0.07996
0.08362
0.08362
0.08789
0.08820
0.08759
0.08423
0.08209
0.07843
0.07324
0.06927
0.06958
0.06927
0.07355
0.07599
0.08057
0.08453
0.09277
0.10193
0.11230
0.12268
0.13245
0.14130
0.15106
0.16144
0.17029
0.18433
0.19562
0.20874
0.22003
0.22949
0.23834
0.24445
0.24841
0.25269
0.25726
0.26001
0.26489
0.26978
0.27710
0.28351
0.29297
0.30304
0.31281
0.32013
0.32745
0.33234
0.33264
0.33203
0.33203
0.32837
0.32593
0.32196
0.31830
0.31738
0.31342
0.31250
0.31189
0.31097
0.30701
0.30701
0.30151
0.29694
0.29144
0.28503
0.27985
0.27740
0.27374
0.27374
0.26947
0.26825
0.26855
0.26764
0.26459
0.26184
0.25879
0.25482
0.25452
0.25391
0.25330
0.25757
0.25909
0.25909
0.25787
0.25269
0.24811
0.23926
0.22797
0.21393
0.19623
0.18127
0.16235
0.14709
0.12756
0.10773
0.08850
0.06989
0.05066
0.03082
0.01160
-0.00885
-0.02380
-0.04272
-0.05707
-0.06744
-0.07324
-0.07690
-0.07690
-0.07721
-0.07690
-0.07660
-0.08148
-0.08820
-0.09613
-0.11017
-0.12543
-0.14038
-0.15930
-0.17914
-0.19867
-0.21820
-0.23773
-0.25330
-0.26703
-0.28076
-0.29022
-0.29694
-0.30212
-0.30579
-0.30701
-0.31097
-0.31128
-0.31128
-0.30731
-0.30487
-0.30029
-0.29175
-0.28564
-0.27710
-0.27100
-0.26367
-0.25787
-0.25330
-0.25146
-0.24780
-0.24811
-0.24780
-0.24384
-0.24139
-0.23682
-0.23285
-0.23315
-0.23285
-0.23712
-0.24200
-0.24780
-0.25726
-0.26337
-0.27191
-0.28198
-0.29144
-0.30029
-0.30579
-0.30975
-0.31097
-0.31067
-0.31097
-0.30762
-0.30518
-0.30060
-0.29602
-0.28778
-0.28137
-0.27313
-0.26215
-0.25269
-0.24231
-0.23376
-0.22339
-0.21362
-0.20416
-0.19470
-0.18799
-0.18311
-0.17853
-0.17303
-0.16449
-0.15900
-0.15015
-0.14435
-0.13641
-0.13245
-0.13092
-0.13428
-0.13885
-0.14496
-0.15350
-0.15991
-0.16449
-0.16479
-0.16418
-0.16510
-0.16357
-0.16052
-0.15594
-0.15472
-0.15015
-0.14618
-0.14526
-0.14160
-0.13885
-0.13489
-0.13397
-0.12939
-0.12054
-0.11505
-0.10590
-0.09796
-0.09155
-0.08301
-0.08057
-0.07721
-0.07660
-0.07660
-0.08118
-0.08179
-0.08057
-0.07233
-0.06226
-0.05188
-0.03815
-0.02808
-0.01801
-0.01343
-0.01373
-0.01434
-0.01892
-0.02441
-0.02869
-0.03632
-0.04242
-0.05157
-0.05737
-0.06348
-0.06805
-0.07141
-0.07568
-0.07660
-0.07690
-0.08087
-0.08148
-0.08209
-0.07812
-0.07660
-0.07324
-0.07233
-0.06866
-0.06714
-0.06348
-0.06195
-0.05859
-0.05310
-0.04883
-0.04333
-0.03754
-0.03174
-0.02777
-0.02411
-0.02197
-0.01923
-0.01801
-0.01801
-0.01831
-0.02228
-0.02411
-0.02930
-0.03387
-0.04211
-0.04639
-0.04883
-0.05188
-0.05249
-0.05646
-0.05341
-0.05249
-0.04791
-0.04669
-0.04272
-0.04303
-0.04272
-0.04639
-0.04761
-0.04761
-0.04700
-0.04364
-0.04211
-0.03479
-0.02899
-0.02655
-0.02228
-0.01709
-0.01251
-0.00885
-0.00885
-0.00946
-0.00977
-0.01373
-0.02197
-0.02777
-0.03815
-0.04791
-0.05341
-0.06226
-0.07172
-0.07782
-0.08575
-0.08789
-0.09094
-0.09125
-0.08636
-0.08087
-0.07233
-0.06348
-0.05768
-0.05188
-0.04730
-0.04364
-0.04272
-0.04303
-0.04639
-0.04822
